Time,PPG,ECG,resp,afib
0.608,0.4696969696969697,0.2987577724021997,-0.8263559643475205,1
0.659,0.5303030303030303,0.2339675575568362,-0.8193843771070599,1
0.711,0.553030303030303,0.2466918603125156,-0.8121936299219925,1
0.761,0.5340909090909092,0.2281502505431787,-0.804783722792318,1
0.812,0.5606060606060606,0.2474596380893512,-0.7971546557180369,1
0.863,0.5113636363636362,0.2816297801824649,-0.7893064286991487,1
0.914,0.5340909090909092,0.3331500249311338,-0.7812390417356536,1
0.965,0.5113636363636362,0.2719443741164425,-0.7729524948275515,1
1.016,0.5378787878787878,0.2181154960634774,-0.7644467879748424,1
1.067,0.5378787878787878,0.2719825142098862,-0.7557219211775266,1
1.118,0.5075757575757576,0.3273346351744579,-0.7467778944356038,1
1.168,0.5303030303030303,0.5386383973274658,-0.737614707749074,1
1.219,0.5151515151515151,0.9010349523977678,-0.7282323611179373,1
1.27,0.5492424242424243,0.9455947662607452,-0.7186308545421938,1
1.321,0.5113636363636362,0.4779678431499101,-0.7088101880218434,1
1.371,0.5454545454545454,0.0701233037362867,-0.6987703615568859,1
1.422,0.5189393939393938,0.0,-0.6885113751473217,1
1.473,0.5265151515151514,0.0130072545859987,-0.6780332287931505,1
1.524,0.5189393939393938,0.0361214819509914,-0.6673359224943725,1
1.576,0.5378787878787878,0.0756238707845447,-0.6564194562509873,1
1.626,0.5378787878787878,0.1075690317975912,-0.6452838300629955,1
1.677,0.5265151515151514,0.1589714991595116,-0.6339290439303964,1
1.728,0.5227272727272727,0.2486347560862191,-0.6223550978531907,1
1.78,0.5227272727272727,0.2923158010882758,-0.6105619918313778,1
1.831,0.5378787878787878,0.3443699802277085,-0.5985497258649581,1
1.882,0.5189393939393938,0.3574096828260042,-0.5863182999539698,1
1.933,0.5681818181818181,0.3840415314713868,-0.5713773752384756,1
1.983,0.5189393939393938,0.3832187107993106,-0.5563528985210773,1
2.034,0.5378787878787878,0.3915495524581728,-0.5413097621372278,1
2.084,0.5340909090909092,0.3497836025981917,-0.5261423533558056,1
2.136,0.5606060606060606,0.3132948844371347,-0.5108901881724999,1
2.187,0.5416666666666667,0.2713334783054619,-0.4955965719950765,1
2.238,0.5151515151515151,0.2385294323120356,-0.4803054266489726,1
2.289,0.5416666666666667,0.2065588330976365,-0.4650612903772986,1
2.34,0.4734848484848484,0.1871592202216865,-0.4499139122218731,1
2.39,0.5,0.1820834690634136,-0.4349035117173994,1
2.441,0.5492424242424243,0.1818794748289227,-0.4197555832710868,1
2.493,0.553030303030303,0.1824624918110564,-0.4044918723862509,1
2.543,0.5454545454545454,0.1947980143837395,-0.3892446094724784,1
2.594,0.5795454545454546,0.213882929697372,-0.3741347793579899,1
2.644,0.5340909090909092,0.2487977687008576,-0.3592962849313008,1
2.695,0.5265151515151514,0.2923370272211724,-0.3448516949988387,1
2.746,0.5340909090909092,0.369522602116924,-0.3309179999106759,1
2.796,0.5227272727272727,0.418304770651467,-0.3176124339228647,1
2.847,0.5378787878787878,0.4611318942655337,-0.305049302203026,1
2.898,0.5454545454545454,0.4663310741177519,-0.2933397009531187,1
2.949,0.5492424242424243,0.4281093624895095,-0.2824240757509133,1
3.0,0.5075757575757576,0.3391686161011052,-0.2721679529810443,1
3.05,0.5151515151515151,0.2544286238716708,-0.2626031438771603,1
3.101,0.4962121212121211,0.1885826439101247,-0.2537446715453897,1
3.152,0.5303030303030303,0.1604226510670754,-0.2456259682354762,1
3.203,0.5265151515151514,0.1428160613702543,-0.2382577712390197,1
3.254,0.5606060606060606,0.1314940233992756,-0.2316460382895413,1
3.304,0.5378787878787878,0.1331409404396367,-0.2258138925743327,1
3.355,0.5113636363636362,0.1601896092990512,-0.2207462511050768,1
3.406,0.5416666666666667,0.1746320253643234,-0.2164472950504397,1
3.457,0.5340909090909092,0.2035621985610106,-0.2128840333663086,1
3.508,0.5303030303030303,0.2386905279064597,-0.2100475335424523,1
3.559,0.5037878787878787,0.2790676727779748,-0.2079104953200095,1
3.611,0.5454545454545454,0.2982994568681655,-0.2064479707080022,1
3.662,0.5416666666666667,0.3252530646062638,-0.2055027998237517,1
3.713,0.553030303030303,0.3195936941026066,-0.2050294489564947,1
3.764,0.5189393939393938,0.3045923984319201,-0.2050059449060532,1
3.814,0.5378787878787878,0.2937355743274449,-0.2054013612542098,1
3.866,0.5454545454545454,0.2798491269538277,-0.2062162352884655,1
3.916,0.5227272727272727,0.2492969540198918,-0.2076364236426968,1
3.967,0.5303030303030303,0.2339528064291325,-0.2097217082574389,1
4.018,0.5,0.2327621135478672,-0.2124750261778714,1
4.069,0.5227272727272727,0.2282743396163871,-0.2158989677044216,1
4.12,0.5378787878787878,0.2271318286658062,-0.2199967726233489,1
4.17,0.553030303030303,0.24416371645234,-0.2247633929440575,1
4.221,0.5303030303030303,0.242874693275353,-0.230178418868403,1
4.272,0.5416666666666667,0.245863980678746,-0.2362315723522035,1
4.323,0.5492424242424243,0.2657361690100769,-0.2428926191626947,1
4.374,0.553030303030303,0.2965484597854664,-0.2501470474326925,1
4.424,0.5189393939393938,0.3023601167110377,-0.2579502431816407,1
4.475,0.5378787878787878,0.3187005113330929,-0.2662587200165438,1
4.527,0.5378787878787878,0.2972298989394973,-0.2750322662076976,1
4.577,0.5,0.2797578167525586,-0.2842392696300977,1
4.628,0.5227272727272727,0.2715544667975906,-0.2938254789757404,1
4.679,0.5151515151515151,0.2630157229430227,-0.3037230302183582,1
4.73,0.5113636363636362,0.2234850391985472,-0.3138787276497323,1
4.781,0.4962121212121211,0.207106195599128,-0.3247600868224256,1
4.833,0.553030303030303,0.2182059648646383,-0.3369449389874841,1
4.884,0.5378787878787878,0.2062421432219319,-0.3500918767671281,1
4.935,0.5378787878787878,0.2029747468179963,-0.3638599673675271,1
4.986,0.5492424242424243,0.2295794600664157,-0.3779244891152036,1
5.037,0.5,0.2286177290517397,-0.3923341331804719,1
5.088,0.5416666666666667,0.2276049013770804,-0.4069833235244795,1
5.138,0.4924242424242424,0.2291499181663137,-0.4216531089513378,1
5.189,0.5265151515151514,0.2413020459102967,-0.4361278349681727,1
5.24,0.5151515151515151,0.2353654517215195,-0.450226641487077,1
5.291,0.5340909090909092,0.2475594477465383,-0.4637671597723205,1
5.342,0.5303030303030303,0.2579443678245639,-0.476573050650932,1
5.393,0.5378787878787878,0.2532874790041533,-0.488459005643143,1
5.443,0.5416666666666667,0.2511290454276802,-0.499327517839796,1
5.494,0.5492424242424243,0.2836721648307672,-0.5089630828226921,1
5.544,0.5227272727272727,0.2926919846982828,-0.5172539637494011,1
5.595,0.5416666666666667,0.2904653741563759,-0.5240718445034231,1
5.645,0.553030303030303,0.286820784525481,-0.5292794396614613,1
5.696,0.5340909090909092,0.2968135439494945,-0.5327901053539064,1
5.748,0.5378787878787878,0.2886178647335875,-0.5344782847589158,1
5.8,0.5113636363636362,0.2566948186874652,-0.5338147160330333,1
5.85,0.5303030303030303,0.2503546247789704,-0.5308207952787753,1
5.901,0.4924242424242424,0.2397789765533234,-0.5255018893714654,1
5.953,0.5265151515151514,0.2217669858232653,-0.5179012089604886,1
6.004,0.5606060606060606,0.1936027516838157,-0.508043197559084,1
6.055,0.553030303030303,0.1604361756262892,-0.4959786529672105,1
6.106,0.5454545454545454,0.1529413912475283,-0.4817525742616007,1
6.157,0.5227272727272727,0.169145417420644,-0.4654199422369882,1
6.208,0.5189393939393938,0.212979150623429,-0.4470334533963003,1
6.259,0.5113636363636362,0.2431477326576389,-0.4268038263192291,1
6.309,0.5265151515151514,0.3269345091051119,-0.4048770417386409,1
6.36,0.4886363636363635,0.3952913517298224,-0.3813642733382174,1
6.411,0.5378787878787878,0.4146553512757907,-0.3563837144779502,1
6.461,0.5606060606060606,0.4179986230899295,-0.3300523045881101,1
6.512,0.5416666666666667,0.3844241184057653,-0.3025184051120826,1
6.563,0.5378787878787878,0.3334260290731006,-0.2739004803917382,1
6.614,0.5454545454545454,0.2866998593828355,-0.2443561674552068,1
6.664,0.5454545454545454,0.2205888151322309,-0.2140387002270758,1
6.717,0.5113636363636362,0.1435044014574627,-0.1831083323082474,1
6.767,0.5075757575757576,0.0918098544056984,-0.1517240633698957,1
6.818,0.5,0.0733746643325438,-0.1200669278223092,1
6.869,0.5416666666666667,0.0748535158830772,-0.0883005195983246,1
6.919,0.5227272727272727,0.074712938598594,-0.0566405848739925,1
6.97,0.5492424242424243,0.0948341989925526,-0.0252532763379691,1
7.021,0.5416666666666667,0.1190921329702687,0.0056410655720364,1
7.072,0.553030303030303,0.1464279233834504,0.0358250291895396,1
7.123,0.5340909090909092,0.2411491574188293,0.0652582096663492,1
7.173,0.5378787878787878,0.373632032610202,0.0938072662902911,1
7.224,0.5303030303030303,0.5935530129499141,0.1211801421432898,1
7.274,0.5227272727272727,0.7227284964139521,0.1470705325625974,1
7.325,0.5340909090909092,0.7776333818106218,0.1711871116082846,1
7.376,0.5113636363636362,0.6543428191859998,0.1938768934755712,1
7.427,0.5340909090909092,0.4330608288823214,0.2158745303573437,1
7.478,0.5113636363636362,0.1865287984370384,0.2371726327450667,1
7.529,0.5340909090909092,0.0500734638162664,0.2577575190266454,1
7.58,0.5,0.0200671049713729,0.2776264775713541,1
7.631,0.5265151515151514,0.0168234934566031,0.2967606328804626,1
7.682,0.5037878787878787,0.0102733568176544,0.3151848666074741,1
7.733,0.5416666666666667,0.0160150673189646,0.3329238560946748,1
7.785,0.5416666666666667,0.0325546103817888,0.3499696590753594,1
7.835,0.5303030303030303,0.0728843818093295,0.366378264844641,1
7.886,0.5416666666666667,0.1265211595380852,0.3821770719170088,1
7.937,0.5303030303030303,0.2165113525553037,0.3974126608481505,1
7.988,0.5416666666666667,0.3441573209094453,0.4121146419817849,1
8.039,0.5378787878787878,0.5220807141921482,0.4263971070963017,1
8.09,0.5454545454545454,0.6521948170500119,0.4402618674021372,1
8.14,0.5265151515151514,0.6237279518384611,0.4537953699474837,1
8.192,0.5454545454545454,0.5134464221134937,0.4670756454094928,1
8.242,0.5189393939393938,0.3884695522588945,0.4801563485374824,1
8.293,0.5265151515151514,0.2812120989017305,0.4931431349141633,1
8.344,0.5568181818181819,0.2269311187529067,0.50610329354366,1
8.395,0.5568181818181819,0.1764931689855101,0.5185876748785789,1
8.446,0.5568181818181819,0.1436836076380536,0.5305968599968023,1
8.496,0.4962121212121211,0.1114304572674125,0.5421224655201393,1
8.547,0.5227272727272727,0.1097274648869018,0.5531830152928698,1
8.598,0.5189393939393938,0.0878601119396012,0.5637704693693628,1
8.649,0.5303030303030303,0.0886651207537018,0.5739045013704196,1
8.701,0.5113636363636362,0.1117104531121677,0.5840522640663934,1
8.751,0.5454545454545454,0.1261945381022185,0.5951500323537733,1
8.802,0.5265151515151514,0.1459531239870039,0.6069386605827671,1
8.853,0.5340909090909092,0.1917071148749527,0.6191430173626582,1
8.904,0.553030303030303,0.2388903728290276,0.6315031486595126,1
8.956,0.5340909090909092,0.290599672796274,0.6437742777961706,1
9.006,0.5378787878787878,0.3636766347030031,0.6557268054522489,1
9.058,0.5265151515151514,0.4236749013164321,0.6671463096641426,1
9.108,0.5492424242424243,0.4531615994485987,0.6778449686048749,1
9.16,0.5303030303030303,0.444142374134186,0.6875923748691446,1
9.211,0.5416666666666667,0.4115674471169842,0.6962599711639075,1
9.261,0.5265151515151514,0.36578434889322,0.7036938271811963,1
9.312,0.5151515151515151,0.2811237276281696,0.7097551899698153,1
9.363,0.5340909090909092,0.2431768517218011,0.7143204839353499,1
9.414,0.5227272727272727,0.1974355441677544,0.7172813108401637,1
9.464,0.5606060606060606,0.1746137853357748,0.7185330270235428,1
9.515,0.5189393939393938,0.1427349540254394,0.717992709266353,1
9.566,0.5189393939393938,0.1351745838416863,0.7156076266736524,1
9.617,0.5037878787878787,0.1404334276133346,0.7113391801136859,1
9.668,0.5643939393939394,0.1573716722120778,0.7051289506123202,1
9.719,0.5265151515151514,0.1680371587709655,0.6967745248570218,1
9.77,0.5454545454545454,0.204819817835598,0.6860972221208979,1
9.82,0.5151515151515151,0.2452275679855129,0.6730383695354343,1
9.871,0.5151515151515151,0.2800526717808857,0.6575602253249477,1
9.922,0.5492424242424243,0.3040922832582615,0.6396084381530067,1
9.973,0.553030303030303,0.3334678280177132,0.6191979309675557,1
10.023,0.5454545454545454,0.3531679033723983,0.5963040977392562,1
10.074,0.5151515151515151,0.3586822680743152,0.570958869650763,1
10.125,0.5492424242424243,0.3396564604943773,0.5431876645484648,1
10.176,0.5075757575757576,0.323353222344753,0.5130249006431531,1
10.227,0.5340909090909092,0.2958211133811461,0.4804921052534725,1
10.278,0.5075757575757576,0.2763104502828057,0.4456846049950003,1
10.329,0.5340909090909092,0.2425425678059384,0.408666545346243,1
10.38,0.5189393939393938,0.218808024591101,0.3695056366345408,1
10.43,0.5454545454545454,0.2028218168244429,0.3272373884205812,1
10.481,0.5340909090909092,0.1961845001965189,0.2815046769162195,1
10.532,0.5303030303030303,0.187283923981655,0.2327992638798437,1
10.583,0.5303030303030303,0.1959178127961428,0.1815793952022315,1
10.634,0.5037878787878787,0.2065436546483561,0.128341333336118,1
10.685,0.5492424242424243,0.2292358765686408,0.0735731043561971,1
10.736,0.5151515151515151,0.2308476783278998,0.0177394487968891,1
10.786,0.5340909090909092,0.2543975813450042,-0.0386904246144337,1
10.837,0.5189393939393938,0.2819290941875668,-0.0952415693342292,1
10.888,0.5454545454545454,0.3048620583206196,-0.1514452317312096,1
10.938,0.5378787878787878,0.3099538513822932,-0.2068351324177366,1
10.989,0.5454545454545454,0.3173559688999167,-0.2609474662498288,1
11.04,0.5227272727272727,0.3226424944112815,-0.3133114783437798,1
11.091,0.5416666666666667,0.3310032389359321,-0.3634796993561577,1
11.142,0.5340909090909092,0.3329343027068017,-0.4110001917505825,1
11.192,0.5303030303030303,0.3133284933749393,-0.4554058561911258,1
11.243,0.5416666666666667,0.2662141593955091,-0.4962565975507331,1
11.293,0.4962121212121211,0.2515238483812624,-0.5331860333929563,1
11.344,0.5303030303030303,0.2334186911519051,-0.5671478726658199,1
11.395,0.5265151515151514,0.2175426599921373,-0.598165246231104,1
11.446,0.5265151515151514,0.1981274670346512,-0.6262476957894489,1
11.496,0.4962121212121211,0.1963244467842955,-0.6514145145465353,1
11.547,0.5454545454545454,0.1863803346264184,-0.6736965036648788,1
11.598,0.5113636363636362,0.1825337731296782,-0.6931358610683931,1
11.648,0.5454545454545454,0.1942649797929979,-0.7097845361860351,1
11.699,0.553030303030303,0.21638731627467,-0.7237064992107716,1
11.75,0.5492424242424243,0.2349120453858458,-0.7349443087429144,1
11.8,0.5189393939393938,0.2512218901641972,-0.7436085865909838,1
11.852,0.5151515151515151,0.3060751813294178,-0.7497952285925717,1
11.903,0.5378787878787878,0.3782485745454684,-0.7536110145394943,1
11.953,0.5568181818181819,0.419936755033405,-0.7551736081777898,1
12.004,0.5416666666666667,0.4626905459024033,-0.754611557207721,1
12.055,0.5113636363636362,0.4441305879648797,-0.752063780476597,1
12.106,0.5303030303030303,0.4042040638203213,-0.7476505629446117,1
12.157,0.5075757575757576,0.318419752417617,-0.7415578723257648,1
12.208,0.5378787878787878,0.2619789665843872,-0.7339575743657394,1
12.259,0.5340909090909092,0.2112390546536096,-0.7249575682881437,1
12.309,0.553030303030303,0.1694965476378607,-0.7145320470435257,1
12.36,0.5265151515151514,0.1400063031712006,-0.7029404680147266,1
12.411,0.5189393939393938,0.1120675383192342,-0.6904584663024476,1
12.461,0.5454545454545454,0.1098511795168902,-0.6773764505992383,1
12.512,0.5265151515151514,0.1303590625547468,-0.6639476645332141,1
12.563,0.5568181818181819,0.1467771943391432,-0.6504916092029418,1
12.613,0.5227272727272727,0.1644478157650475,-0.6372936108370197,1
12.664,0.5265151515151514,0.2028896287315937,-0.6246959693836933,1
12.714,0.5151515151515151,0.2755529034805905,-0.6130301484579088,1
12.765,0.5492424242424243,0.3273347465584366,-0.602621609707872,1
12.816,0.5189393939393938,0.4322113956481724,-0.5937808294019535,1
12.866,0.5454545454545454,0.5413234132061285,-0.5868896126517453,1
12.917,0.5416666666666667,0.566002302503305,-0.5822981526769513,1
12.967,0.5378787878787878,0.5096064231945866,-0.5803416573174378,1
13.018,0.5151515151515151,0.4468523774222386,-0.5800998964031971,1
13.069,0.5378787878787878,0.3651129373318978,-0.5808637298510557,1
13.12,0.5492424242424243,0.2572121792997481,-0.5826159998083653,1
13.171,0.5454545454545454,0.1671235156697126,-0.5853147296166807,1
13.222,0.5340909090909092,0.112370335543532,-0.5889269826541592,1
13.273,0.5075757575757576,0.0829074333554827,-0.5942535509070028,1
13.325,0.5227272727272727,0.0758401762439878,-0.6017746108007616,1
13.375,0.5075757575757576,0.0812625188073679,-0.6111209824366814,1
13.426,0.5303030303030303,0.0978219926957595,-0.6219296991930332,1
13.477,0.5227272727272727,0.1083660466363036,-0.6338202566558939,1
13.528,0.5568181818181819,0.1299331446747519,-0.6464708139662092,1
13.578,0.5492424242424243,0.153926845909662,-0.6595130912992253,1
13.629,0.5340909090909092,0.208419538382148,-0.6726489398342148,1
13.68,0.5151515151515151,0.2656186010942882,-0.6855367115573439,1
13.73,0.5340909090909092,0.3398692858632842,-0.6978266446459613,1
13.781,0.5606060606060606,0.4534380303339611,-0.7092391082814435,1
13.833,0.4962121212121211,0.5415104059571553,-0.7194509724520592,1
13.884,0.5454545454545454,0.5819837415383904,-0.7287031920387017,1
13.935,0.5227272727272727,0.5419045927376008,-0.7368729908343326,1
13.985,0.5416666666666667,0.4106947608790974,-0.743760053691928,1
14.036,0.5151515151515151,0.3022450569349536,-0.7492259015319787,1
14.087,0.5227272727272727,0.2224820327570447,-0.7531148091501036,1
14.137,0.5265151515151514,0.194306713139008,-0.7544822317589039,1
14.188,0.5416666666666667,0.1438487370354125,-0.7522654842923586,1
14.239,0.553030303030303,0.1284709422685565,-0.7467278039696701,1
14.29,0.5227272727272727,0.1220150760835142,-0.7381390736714528,1
14.34,0.5378787878787878,0.1258488229109503,-0.7267352620949665,1
14.391,0.5037878787878787,0.1510713335405862,-0.7127758515578768,1
14.441,0.5340909090909092,0.1794845463676316,-0.6964852777453165,1
14.492,0.5075757575757576,0.1984104778294397,-0.6780986534389659,1
14.543,0.553030303030303,0.2274478323786888,-0.657858873891703,1
14.594,0.5189393939393938,0.2592929327364959,-0.635973787723872,1
14.645,0.5303030303030303,0.2812462219620285,-0.6126625446549758,1
14.696,0.4848484848484848,0.2897480039513837,-0.5881503204239233,1
14.746,0.553030303030303,0.2983463291718388,-0.5626288893934461,1
14.797,0.5606060606060606,0.2879023222979685,-0.5363001902156499,1
14.847,0.5303030303030303,0.2876420402829275,-0.5094004057588972,1
14.898,0.5151515151515151,0.3015755748053463,-0.4824553126165134,1
14.949,0.5378787878787878,0.297723527756561,-0.4557387019243522,1
14.999,0.5643939393939394,0.2773244343924206,-0.4294854285481082,1
15.05,0.5303030303030303,0.2971889295098361,-0.4039223813553532,1
15.101,0.5416666666666667,0.2904654791379767,-0.3793305973785181,1
15.151,0.5113636363636362,0.2875712067094233,-0.3559438130482832,1
15.202,0.5265151515151514,0.2891709775357043,-0.3339947276932218,1
15.252,0.5113636363636362,0.290984271369238,-0.3137195351420105,1
15.303,0.5378787878787878,0.2660119831139242,-0.2953569179308832,1
15.354,0.5378787878787878,0.2481327150096847,-0.2791273978845057,1
15.405,0.5492424242424243,0.2466739999749357,-0.2655450794738128,1
15.456,0.5340909090909092,0.2454256897450964,-0.2553146333150518,1
15.507,0.553030303030303,0.2421524549398084,-0.2484893376188628,1
15.557,0.5113636363636362,0.2593860982049683,-0.245126778596759,1
15.608,0.5151515151515151,0.2535371422703639,-0.2452849866301831,1
15.658,0.553030303030303,0.2562833955882014,-0.2490152111961285,1
15.709,0.5151515151515151,0.2744172600628371,-0.2563937853310527,1
15.76,0.5,0.2897257717911734,-0.2674831311177676,1
15.81,0.5265151515151514,0.2791274433424645,-0.2823610694192382,1
15.861,0.5568181818181819,0.28580775638203,-0.3000989019707161,1
15.912,0.5340909090909092,0.2877536270199191,-0.3197270180122733,1
15.962,0.5340909090909092,0.2938509942960227,-0.3409776699428981,1
16.013,0.5113636363636362,0.2862204922272583,-0.363571100421312,1
16.064,0.5454545454545454,0.2904283078731464,-0.3872541283187924,1
16.116,0.5378787878787878,0.2630573418334357,-0.4117054393055719,1
16.167,0.5227272727272727,0.2495263446215805,-0.4366540463336519,1
16.217,0.5037878787878787,0.2417220254073935,-0.4617638477865027,1
16.268,0.5113636363636362,0.2379617386404698,-0.4867104833765441,1
16.32,0.5492424242424243,0.2345054135897409,-0.5111961690287483,1
16.37,0.5189393939393938,0.2414135445236109,-0.5344316436249448,1
16.421,0.5492424242424243,0.2354836598856407,-0.5560528731660259,1
16.472,0.5340909090909092,0.2374729736843441,-0.5758531509773328,1
16.523,0.5227272727272727,0.2490506606812829,-0.5935350334087559,1
16.573,0.5113636363636362,0.2656749768239188,-0.60884910878182,1
16.624,0.5681818181818181,0.2691920116164507,-0.6214800696893512,1
16.675,0.5378787878787878,0.2876404185024304,-0.631122914342537,1
16.726,0.5606060606060606,0.3110805429533416,-0.6384312404303247,1
16.776,0.5340909090909092,0.3216117068704281,-0.6445907728368243,1
16.827,0.5265151515151514,0.3512011126423502,-0.6496805733503117,1
16.878,0.5303030303030303,0.3873952797851917,-0.6537749289908867,1
16.928,0.5340909090909092,0.366073544577074,-0.6569802505597824,1
16.979,0.5378787878787878,0.3406047058941664,-0.6593832521378891,1
17.03,0.5075757575757576,0.3130879498977855,-0.6610867555202473,1
17.08,0.5378787878787878,0.2801810728415739,-0.6621917023590689,1
17.131,0.5378787878787878,0.2435001066289716,-0.6627854343586208,1
17.182,0.5454545454545454,0.2140953820936264,-0.662994669562939,1
17.233,0.5113636363636362,0.1799835152163428,-0.6629194046264808,1
17.283,0.5265151515151514,0.1483508424147889,-0.6626621139941584,1
17.334,0.5340909090909092,0.139685443338329,-0.6624894469635596,1
17.384,0.553030303030303,0.1571459405608642,-0.6629864819500297,1
17.435,0.5303030303030303,0.1704385649707294,-0.6641552157468176,1
17.486,0.5265151515151514,0.1750266194041916,-0.665976313556875,1
17.536,0.5340909090909092,0.2227550667052605,-0.6684356941402041,1
17.587,0.5492424242424243,0.2952626441466038,-0.6715569042119078,1
17.638,0.5454545454545454,0.3471206522092179,-0.6753745332948422,1
17.69,0.5227272727272727,0.4680854833318708,-0.6798855953651821,1
17.74,0.5568181818181819,0.5584593849824858,-0.6851326422662602,1
17.791,0.5037878787878787,0.5558627372565498,-0.6911650367430169,1
17.842,0.5303030303030303,0.4853397640173529,-0.6980336708379682,1
17.893,0.5265151515151514,0.4209426584622433,-0.7057813408196483,1
17.944,0.5492424242424243,0.3080305836055834,-0.7144884709116905,1
17.995,0.5227272727272727,0.2002537652272081,-0.7238813012697989,1
18.045,0.5378787878787878,0.1135220151492339,-0.7333117854990812,1
18.096,0.5454545454545454,0.0630648911094385,-0.7426845711719363,1
18.147,0.5075757575757576,0.0424943067811903,-0.7518986895448285,1
18.198,0.5265151515151514,0.0447239135218631,-0.761930543163873,1
18.248,0.5075757575757576,0.0534965068071305,-0.773638385047621,1
18.299,0.5378787878787878,0.0703837762987544,-0.7865158479142871,1
18.35,0.5,0.1048314871830523,-0.8000187282123359,1
18.401,0.571969696969697,0.1674076842966685,-0.8136270847988507,1
18.451,0.5340909090909092,0.2371256506729828,-0.8267844046451158,1
18.502,0.5265151515151514,0.3976593088209079,-0.8390692922943048,1
18.552,0.5227272727272727,0.5839182321735674,-0.8500194973873298,1
18.603,0.5757575757575757,0.6903816995487269,-0.8591970319737203,1
18.654,0.5492424242424243,0.7533423460740921,-0.8661273362172079,1
18.705,0.5189393939393938,0.6903633510172975,-0.8704746410363429,1
18.756,0.5303030303030303,0.4977268933963372,-0.8718556563006143,1
18.807,0.5151515151515151,0.2939711147496741,-0.8699106997377131,1
18.858,0.5492424242424243,0.1584169181995136,-0.8642538565192603,1
18.909,0.5113636363636362,0.0767642665860323,-0.8546246446094543,1
18.96,0.5378787878787878,0.0422552189928717,-0.841243559224149,1
19.01,0.5151515151515151,0.0490810092136237,-0.8240563760174615,1
19.061,0.5606060606060606,0.0496128494395041,-0.8029116046916249,1
19.112,0.5151515151515151,0.0564961451377928,-0.7777060671432792,1
19.163,0.5340909090909092,0.073520889502372,-0.7457533288249449,1
19.214,0.5454545454545454,0.1019133643695847,-0.7071699182317395,1
19.265,0.5340909090909092,0.1360738446714655,-0.6625240099719454,1
19.316,0.5378787878787878,0.2109558061055668,-0.6123666779844497,1
19.367,0.5075757575757576,0.3024696962819476,-0.557256980794856,1
19.418,0.5454545454545454,0.4483718064134995,-0.4977528923263596,1
19.468,0.5340909090909092,0.5492950887523212,-0.4344219437100052,1
19.518,0.571969696969697,0.5736181544474984,-0.3678145654074418,1
19.569,0.4772727272727273,0.5080205016730432,-0.2984815093862147,1
19.62,0.5189393939393938,0.4040821299399152,-0.2269970287290958,1
19.671,0.5151515151515151,0.282589847866561,-0.1539110232908265,1
19.721,0.5454545454545454,0.1862658408450543,-0.079782539611811,1
19.772,0.5378787878787878,0.1399288374138177,-0.005169284100928,1
19.823,0.5606060606060606,0.1224031794900067,0.0693721214353559,1
19.874,0.5492424242424243,0.0931268533135747,0.1432919862433097,1
19.924,0.5227272727272727,0.0941937041417874,0.2162049550681613,1
19.975,0.5075757575757576,0.1089220695153708,0.2881861058621928,1
20.026,0.4924242424242424,0.1335958402228649,0.3588338977014151,1
20.077,0.5454545454545454,0.1610331264821113,0.4277431471501347,1
20.127,0.5189393939393938,0.2015714936958106,0.4945143529792069,1
20.178,0.5340909090909092,0.2515652642131648,0.5587536961660295,1
20.229,0.5227272727272727,0.3061129451683246,0.6200730398945473,1
20.28,0.5303030303030303,0.3374997401858027,0.6780899295552478,1
20.331,0.5378787878787878,0.3943002516642043,0.7324133107795183,1
20.382,0.5643939393939394,0.4386967351356223,0.7826867460923435,1
20.432,0.5643939393939394,0.4335542948611879,0.8285370530072109,1
20.483,0.5454545454545454,0.3797934630890041,0.8696136538809673,1
20.533,0.5340909090909092,0.3304607319495141,0.9055546654779398,1
20.584,0.5037878787878787,0.2734651299921657,0.9360208094058096,1
20.634,0.5303030303030303,0.2042957111031224,0.9606691647605664,1
20.685,0.5037878787878787,0.1531929833954235,0.9791624928447376,1
20.735,0.5227272727272727,0.137395318186325,0.9911692371674,1
20.786,0.5075757575757576,0.1260933063888711,0.997661894669814,1
20.837,0.553030303030303,0.1360710942514412,1.0000000000000004,1
20.887,0.5113636363636362,0.1439797236061198,0.9984459643977176,1
20.938,0.553030303030303,0.1582451411160228,0.993236925739402,1
20.989,0.5340909090909092,0.1969274484570122,0.9846352435028618,1
21.039,0.5416666666666667,0.2557380295842352,0.973137562450034,1
21.09,0.5416666666666667,0.295089818604594,0.9591452702343432,1
21.141,0.5378787878787878,0.3599622447418607,0.9429221405386236,1
21.192,0.5227272727272727,0.4064481340721155,0.9247602756453062,1
21.242,0.5113636363636362,0.4368250041235057,0.9049186623084732,1
21.293,0.5378787878787878,0.3843097616419322,0.8837961255954929,1
21.344,0.5189393939393938,0.3105138771039925,0.8617544967554314,1
21.395,0.5227272727272727,0.2470193978418591,0.8392166795961251,1
21.446,0.5,0.1955713028513181,0.8165544198073125,1
21.497,0.5643939393939394,0.1563306221003082,0.7942793013920193,1
21.548,0.5227272727272727,0.1428056246560681,0.7728659145349686,1
21.598,0.5416666666666667,0.1539205520808313,0.7528647494328649,1
21.649,0.5454545454545454,0.1883297596289548,0.7348038383330926,1
21.699,0.5606060606060606,0.210658180431992,0.7192575846723823,1
21.75,0.5454545454545454,0.2555642902430607,0.7036488429428109,1
21.8,0.5303030303030303,0.3131204917826435,0.6875963088341126,1
21.851,0.5416666666666667,0.3776024012410558,0.671063252576312,1
21.902,0.5340909090909092,0.4057374545145536,0.6540318727200192,1
21.953,0.5227272727272727,0.4349681833645868,0.6364864200233913,1
22.004,0.5189393939393938,0.4003415493187311,0.6183973296060001,1
22.054,0.5416666666666667,0.3282779785710663,0.599755131384716,1
22.105,0.4886363636363635,0.2699377865873938,0.5805217121846105,1
22.156,0.5265151515151514,0.2286706640626452,0.5607173003221879,1
22.207,0.5113636363636362,0.1899522179246757,0.5403089418283011,1
22.258,0.5416666666666667,0.1832169430476835,0.519300653644132,1
22.309,0.5606060606060606,0.1746951406490134,0.4976891802001697,1
22.36,0.5340909090909092,0.1662456351314341,0.4754836976433743,1
22.411,0.5151515151515151,0.1667227325431335,0.4526943939353307,1
22.462,0.5,0.1857754397917752,0.4292946557042967,1
22.513,0.5416666666666667,0.1975815932377945,0.4053265905788827,1
22.564,0.5265151515151514,0.2094575665543724,0.3807791239020499,1
22.614,0.5265151515151514,0.2286898493147937,0.3555437455582568,1
22.665,0.5037878787878787,0.2523676810750528,0.3293703836259838,1
22.716,0.5265151515151514,0.2540518957485908,0.3023694391347131,1
22.767,0.5340909090909092,0.2680868700140179,0.2746443798211038,1
22.817,0.5606060606060606,0.2933445105592526,0.2463121914770716,1
22.869,0.5416666666666667,0.3050888339671584,0.2174751699414696,1
22.92,0.5492424242424243,0.2963551127348871,0.1882648282728043,1
22.971,0.5454545454545454,0.3223794447920592,0.1587669900377797,1
23.021,0.5340909090909092,0.3294272853669844,0.1291057413176672,1
23.072,0.5492424242424243,0.3278738622011988,0.0993799300500124,1
23.122,0.5151515151515151,0.3138712253735291,0.0697048331247609,1
23.173,0.5454545454545454,0.3142918023479421,0.0401718715022227,1
23.224,0.5227272727272727,0.2989607811953184,0.0108936472787855,1
23.275,0.5303030303030303,0.2761163569965237,-0.0180255529560731,1
23.326,0.5151515151515151,0.2531841817730347,-0.0464820014595424,1
23.376,0.5606060606060606,0.2432345834463916,-0.0743632046172346,1
23.428,0.5340909090909092,0.2322650703365464,-0.1015741502982421,1
23.478,0.5416666666666667,0.2324565826982948,-0.1280063476913495,1
23.529,0.5265151515151514,0.2300404173486444,-0.1535723161800857,1
23.58,0.5227272727272727,0.2336914413485536,-0.1781569259863253,1
23.631,0.5492424242424243,0.2450640183629412,-0.201996603581875,1
23.683,0.5151515151515151,0.2664698746709922,-0.2251678176562372,1
23.733,0.5378787878787878,0.2669890720181657,-0.2476855741266974,1
23.785,0.5227272727272727,0.2723263333445367,-0.2698821036184449,1
23.835,0.5454545454545454,0.284478542266547,-0.2916691570872669,1
23.886,0.5378787878787878,0.2979910478665343,-0.3129689343348074,1
23.937,0.5492424242424243,0.291844841864829,-0.333691207265268,1
23.988,0.5303030303030303,0.2848739710565961,-0.3537843322465925,1
24.038,0.5113636363636362,0.2730947921463951,-0.3731910198340733,1
24.089,0.5227272727272727,0.2755165885940205,-0.3918585538822743,1
24.139,0.5037878787878787,0.2584417001223273,-0.4097253572965673,1
24.191,0.5492424242424243,0.2493448910916281,-0.4267862542235514,1
24.241,0.5,0.2438465588560743,-0.4429943379020127,1
24.292,0.5378787878787878,0.2418614598989548,-0.4583256692714728,1
24.343,0.5378787878787878,0.2325807777045039,-0.4727461811169626,1
24.394,0.5492424242424243,0.2484043881033174,-0.486260164874988,1
24.444,0.5151515151515151,0.2473110137226029,-0.4988459238367047,1
24.495,0.5227272727272727,0.253776740817309,-0.5105213871500476,1
24.546,0.5075757575757576,0.2573998661822693,-0.5212965384073436,1
24.597,0.5454545454545454,0.2749850091880678,-0.5311882430985289,1
24.648,0.5454545454545454,0.2746748810988877,-0.5402202486111427,1
24.699,0.5113636363636362,0.2671235852533241,-0.5484041002475515,1
24.751,0.5454545454545454,0.2619424230719137,-0.5554749886218573,1
24.801,0.5189393939393938,0.2567704575245082,-0.5612747210031259,1
24.853,0.553030303030303,0.2580781389202851,-0.5659759654948866,1
24.904,0.5340909090909092,0.2605365288768329,-0.5697616444094369,1
24.955,0.5303030303030303,0.2627828949434274,-0.5727934756801145,1
25.006,0.553030303030303,0.2871612905464004,-0.5752658417717385,1
25.058,0.5454545454545454,0.3093435260870339,-0.5773242327701205,1
25.108,0.553030303030303,0.3126196687445295,-0.5791921066533496,1
25.159,0.5189393939393938,0.2816812236642366,-0.581006103018429,1
25.21,0.5492424242424243,0.2804959000523024,-0.5828015042095025,1
25.26,0.5265151515151514,0.2849948405903814,-0.5843728909472827,1
25.311,0.571969696969697,0.2829336800188463,-0.5858202289886907,1
25.361,0.553030303030303,0.2804910376923247,-0.5872108572065473,1
25.412,0.5416666666666667,0.2997222002523221,-0.5886371474724381,1
25.463,0.5151515151515151,0.3035414569142238,-0.590175568876562,1
25.513,0.5454545454545454,0.2684051276659547,-0.5919331121165397,1
25.563,0.553030303030303,0.2517636026594011,-0.5939636896578169,1
25.614,0.5340909090909092,0.2542076439631929,-0.5963526214107537,1
25.665,0.5,0.242726839565481,-0.5991875408848135,1
25.716,0.5227272727272727,0.2351254933074079,-0.6025312113656014,1
25.767,1.0,0.2205396168603708,-0.6085338759453074,1
25.818,0.0909090909090908,0.2166426922691302,-0.6179074673527785,1
25.869,0.0606060606060605,0.2469821198601881,-0.6301355032478535,1
25.92,0.4507575757575757,0.3032654142188239,-0.6446108734521458,1
25.97,0.7613636363636362,0.3184238349413373,-0.6608676059740193,1
26.021,0.9356060606060606,0.3387699413124737,-0.678401475473499,1
26.071,0.8977272727272729,0.3522668727150247,-0.6967414911257701,1
26.122,0.4431818181818181,0.4293745550378576,-0.7153679319088766,1
26.172,0.0,0.4331397900110386,-0.73393042299594,1
26.223,0.2803030303030303,0.3433070843473972,-0.7519675103737733,1
26.274,0.571969696969697,0.3078538207165495,-0.7691652526620987,1
26.325,0.5909090909090908,0.2103149207533283,-0.7850828839306883,1
26.375,0.5189393939393938,0.1242582765353034,-0.7990249824167033,1
26.426,0.4772727272727273,0.0889924416295467,-0.810554310649336,1
26.477,0.4772727272727273,0.0876499757545627,-0.8193682121558361,1
26.528,0.5151515151515151,0.0827072707787731,-0.8251236024554383,1
26.578,0.5,0.0966681798764597,-0.8243127533869532,1
26.629,0.5492424242424243,0.2742779644388246,-0.8165106672724483,1
26.68,0.5643939393939394,0.3075303420449798,-0.8022439148688165,1
26.731,0.5568181818181819,0.3362490106239732,-0.7820508255242373,1
26.781,0.5075757575757576,0.3575118213583131,-0.7564026270012165,1
26.832,0.5113636363636362,0.3909125914792547,-0.7257914282166369,1
26.883,0.5113636363636362,0.35685271313786,-0.6907223638839639,1
26.933,0.4886363636363635,0.3858791622934764,-0.6516311673880402,1
26.984,0.5454545454545454,0.4093627242857803,-0.6089742274558201,1
27.035,0.553030303030303,0.3625326013527725,-0.5631963699600426,1
27.085,0.5378787878787878,0.3021690963989075,-0.5147564791076791,1
27.136,0.4924242424242424,0.292652831332456,-0.4640452961269985,1
27.186,0.5303030303030303,0.2574916056828163,-0.4114731761953458,1
27.237,0.5227272727272727,0.2084385528230783,-0.3574389116358487,1
27.288,0.5378787878787878,0.1911845684466699,-0.3023309991227223,1
27.339,0.4962121212121211,0.2141745694251266,-0.2469333227653609,1
27.389,0.5454545454545454,0.2019020649715002,-0.1919775482518795,1
27.44,0.4886363636363635,0.1966295272911056,-0.1379616307933524,1
27.49,0.4848484848484848,0.2223493441302599,-0.0853793841707153,1
27.541,0.5454545454545454,0.2836643944806363,-0.0346845654627663,1
27.591,0.5833333333333333,0.3159751947718784,0.0136549262951675,1
27.642,0.5681818181818181,0.3524355765504575,0.0591777671942783,1
27.692,0.5454545454545454,0.4393979409070327,0.1014163150356499,1
27.743,0.5833333333333333,0.4917406978825118,0.1399429843225093,1
27.794,0.6022727272727271,0.5160663942316598,0.1743160476015504,1
27.844,0.6590909090909092,0.587760223654876,0.2041003525459874,1
27.895,0.6022727272727271,0.6252576514893309,0.2288800497273775,1
27.946,0.4734848484848484,0.5424712995584223,0.2481971451064777,1
27.996,0.4166666666666667,0.4944275018406222,0.2616672596152969,1
28.047,0.4772727272727273,0.4990867809407778,0.2688814125090699,1
28.098,0.4962121212121211,0.4051057423623956,0.2694243047529285,1
28.148,0.4962121212121211,0.1730798008175207,0.2629206940141433,1
28.199,0.5075757575757576,0.0369631516488178,0.2477750495550998,1
28.25,0.5189393939393938,0.00785238098025,0.2233689175396422,1
28.301,0.5227272727272727,0.016701351983908,0.1896528293070645,1
28.351,0.5303030303030303,0.0420828381223696,0.1491257202368738,1
28.402,0.5492424242424243,0.062007664696787,0.1035194009455362,1
28.453,0.5151515151515151,0.0956885153978687,0.0535627019700966,1
28.504,0.5151515151515151,0.2264608338302135,-0.0001026869152682,1
28.555,0.4924242424242424,0.5120167368617674,-0.0567001639224362,1
28.606,0.5227272727272727,0.7007182733502807,-0.115478267695213,1
28.657,0.5151515151515151,0.698718939365121,-0.1756839129419796,1
28.708,0.5265151515151514,0.6667059728565232,-0.2365987806440985,1
28.758,0.5340909090909092,0.5753699118933513,-0.2973696397689864,1
28.809,0.5303030303030303,0.4279559906169434,-0.3572401132951031,1
28.86,0.5265151515151514,0.3434440888098931,-0.415318912186962,1
28.911,0.5,0.2413388980597484,-0.4708116014201171,1
28.961,0.5492424242424243,0.1906719327256942,-0.5227888339561819,1
29.012,0.5189393939393938,0.1523641914356934,-0.5705921252600683,1
29.063,0.5227272727272727,0.1322842402468192,-0.6132558566377193,1
29.114,0.5113636363636362,0.1435266642195781,-0.6497909089903608,1
29.165,0.5340909090909092,0.1969260590232776,-0.6830970098011913,1
29.215,0.5113636363636362,0.2454312245064092,-0.7138414257199455,1
29.266,0.5265151515151514,0.3015712846802765,-0.7419060524283538,1
29.317,0.5265151515151514,0.3522747677888883,-0.7671847944000201,1
29.367,0.5378787878787878,0.3853827348443493,-0.7896175995887584,1
29.418,0.5378787878787878,0.4474234624868892,-0.8091619803550989,1
29.469,0.5454545454545454,0.5235839422193489,-0.8257458757644964,1
29.519,0.5492424242424243,0.5337243374255337,-0.8393701810986329,1
29.57,0.5037878787878787,0.4776690893919977,-0.8500144063899813,1
29.621,0.5189393939393938,0.4425799276223411,-0.8577012472661811,1
29.671,0.4810606060606059,0.39810544101043,-0.8624238260597967,1
29.722,0.5227272727272727,0.3130863325006926,-0.864236081167121,1
29.773,0.5227272727272727,0.230612524401399,-0.8632095153911665,1
29.824,0.5151515151515151,0.1523919251867863,-0.8594050948906631,1
29.874,0.5265151515151514,0.0999643153265356,-0.8529269714195074,1
29.925,0.5606060606060606,0.1013027998480909,-0.8434573007024813,1
29.976,0.4886363636363635,0.1270099351324566,-0.8305544498955504,1
30.027,0.5227272727272727,0.1408973826109528,-0.814568281264942,1
30.078,0.5340909090909092,0.1580421112597925,-0.7958448705663967,1
30.129,0.5303030303030303,0.2271664957471465,-0.7747738651916076,1
30.18,0.5416666666666667,0.3556156924207173,-0.7517466816366216,1
30.231,0.5265151515151514,0.4670642122783898,-0.7271417279089489,1
30.282,0.5606060606060606,0.5763614232843012,-0.7013244961883829,1
30.333,0.5340909090909092,0.6109946496645722,-0.6747333401834448,1
30.383,0.5340909090909092,0.5977445290145811,-0.64776798392567,1
30.434,0.5037878787878787,0.5580847716131303,-0.6208555417393964,1
30.485,0.5416666666666667,0.544793792780705,-0.5944101194604232,1
30.535,0.5378787878787878,0.4311959168610643,-0.5688329070968352,1
30.586,0.5113636363636362,0.2859014569268476,-0.5445888268682157,1
30.636,0.5151515151515151,0.1937733819551395,-0.5221243318927082,1
30.687,0.5340909090909092,0.1605546774909131,-0.5018618505721728,1
30.738,0.5454545454545454,0.1380006344056201,-0.4842510262510537,1
30.789,0.5189393939393938,0.1544974381046421,-0.4683359921687646,1
30.839,0.5454545454545454,0.1790809424221104,-0.4537206214450724,1
30.89,0.5037878787878787,0.2020984142069895,-0.4404712133213757,1
30.941,0.553030303030303,0.2192258750044184,-0.4286748667334188,1
30.991,0.5189393939393938,0.2537433937386313,-0.4183916830850318,1
31.042,0.5227272727272727,0.2968618073024395,-0.4096879846101711,1
31.092,0.5227272727272727,0.3426073772907995,-0.4029998087568587,1
31.143,0.5454545454545454,0.3807754534076199,-0.3984902151192271,1
31.194,0.5454545454545454,0.4163872254308371,-0.3960956325780533,1
31.244,0.5454545454545454,0.4288798295572934,-0.3957296995789465,1
31.295,0.5303030303030303,0.425108863856341,-0.3973093452002585,1
31.345,0.5113636363636362,0.3693211176990448,-0.4007537749217937,1
31.396,0.5113636363636362,0.3190096459217497,-0.4059770315348738,1
31.446,0.4886363636363635,0.2851169154272863,-0.4128906379769224,1
31.497,0.5340909090909092,0.252310825326492,-0.4214014254422453,1
31.548,0.5340909090909092,0.2347044295389485,-0.4314185015266036,1
31.598,0.5492424242424243,0.2392132316579494,-0.4426340712117427,1
31.649,0.5113636363636362,0.2394458130352393,-0.4548640622762985,1
31.699,0.5568181818181819,0.2453462753061784,-0.4679728902275659,1
31.75,0.5340909090909092,0.2596802049648681,-0.4817938380980879,1
31.801,0.5416666666666667,0.2978541551648083,-0.4961680061015827,1
31.852,0.5189393939393938,0.3152140235765895,-0.5109469440639725,1
31.903,0.5151515151515151,0.3411316348309983,-0.525951069336426,1
31.954,0.5227272727272727,0.3546073271159364,-0.5410233890348133,1
32.009,0.5568181818181819,0.3600072861128387,-0.5559757778002516,1
32.06,0.5606060606060606,0.3519219638793335,-0.5700976789365493,1
32.11,0.5037878787878787,0.3515159246595384,-0.5833178546905575,1
32.161,0.5265151515151514,0.3373516355533952,-0.5955591425410256,1
32.211,0.5189393939393938,0.3203114552516309,-0.6067188302473756,1
32.263,0.5303030303030303,0.3114651012595245,-0.6167057990075089,1
32.314,0.5643939393939394,0.3150843978230384,-0.6254164268009428,1
32.365,0.5568181818181819,0.3042507219064703,-0.6327215418878642,1
32.415,0.571969696969697,0.3107224107134755,-0.6385183385504656,1
32.466,0.5151515151515151,0.3163560244820855,-0.6426499257655975,1
32.517,0.5189393939393938,0.3188047346021098,-0.6454965950688116,1
32.567,0.5075757575757576,0.3168284248642334,-0.6477847594035357,1
32.618,0.5378787878787878,0.3216771412270076,-0.6496186638031349,1
32.669,0.5075757575757576,0.3166223449803196,-0.6510642632979979,1
32.72,0.5454545454545454,0.312983418027439,-0.6522181572828929,1
32.77,0.5340909090909092,0.3034640936788835,-0.6531570530932247,1
32.821,0.5416666666666667,0.2935077690637171,-0.6539864959306565,1
32.872,0.5378787878787878,0.2826095618654193,-0.6547848498824411,1
32.923,0.5189393939393938,0.2956230223266056,-0.6556381850803754,1
32.974,0.5492424242424243,0.292624656636707,-0.6566346804346224,1
33.025,0.5037878787878787,0.3079371642884786,-0.6587920015028359,1
33.076,0.5378787878787878,0.3185520329042687,-0.6631497873105208,1
33.127,0.5151515151515151,0.3274196979015625,-0.6694067656737936,1
33.178,0.5037878787878787,0.3206068211618812,-0.6772397676396256,1
33.229,0.5189393939393938,0.320707808371856,-0.6863439010035588,1
33.28,0.5454545454545454,0.3014155537474111,-0.6963995355949375,1
33.331,0.5492424242424243,0.275811026983435,-0.7072226610410535,1
33.381,0.5189393939393938,0.2752681587238559,-0.7185267278978666,1
33.432,0.5265151515151514,0.2781288730344781,-0.7300358571354864,1
33.483,0.5151515151515151,0.2689252473283521,-0.7415855145432517,1
33.533,0.5151515151515151,0.2700705588386496,-0.7529690309355608,1
33.584,0.5,0.2760086049839768,-0.7640292833394964,1
33.635,0.553030303030303,0.2834226693208722,-0.7745651209231663,1
33.685,0.5378787878787878,0.2775505346847193,-0.784012988897941,1
33.736,0.5416666666666667,0.321302088198638,-0.7918954725513325,1
33.786,0.5454545454545454,0.3508819200499438,-0.7980127430404242,1
33.837,0.553030303030303,0.364557227869326,-0.8020297954532896,1
33.887,0.5151515151515151,0.369058105061549,-0.8029712469785952,1
33.938,0.5303030303030303,0.3807621321375718,-0.8008395752744484,1
33.989,0.5265151515151514,0.3552851976336745,-0.7956262201770363,1
34.04,0.5378787878787878,0.3382575813071435,-0.7873128084392091,1
34.09,0.5454545454545454,0.3184393673737469,-0.775924053336384,1
34.141,0.4886363636363635,0.2619355914413886,-0.7614666621774873,1
34.191,0.5151515151515151,0.2304887824636318,-0.7439397010773243,1
34.242,0.5227272727272727,0.2261599588454389,-0.723382679838686,1
34.293,0.5606060606060606,0.1773156727398426,-0.6998218985532267,1
34.343,0.5265151515151514,0.1339667245921323,-0.6732738442292616,1
34.394,0.5189393939393938,0.1562343293782797,-0.6437954475630918,1
34.445,0.5265151515151514,0.1934538225144539,-0.6114147650916779,1
34.496,0.5416666666666667,0.1986162786934129,-0.5762002970399627,1
34.546,0.5340909090909092,0.2687855777794017,-0.538207333921755,1
34.597,0.5189393939393938,0.4344700218107554,-0.4974813531675237,1
34.648,0.5151515151515151,0.6673237375003043,-0.454753501771536,1
34.698,0.5303030303030303,0.7955130586420904,-0.4102124182222915,1
34.749,0.553030303030303,0.711660919191658,-0.3640544745657919,1
34.8,0.5265151515151514,0.4530631336269929,-0.3165127102787179,1
34.851,0.5340909090909092,0.2569963965808879,-0.2678013723711911,1
34.901,0.4962121212121211,0.1554048376694184,-0.2181635120487879,1
34.952,0.5189393939393938,0.0989608718770908,-0.1678285911764439,1
35.002,0.5113636363636362,0.0829191710782344,-0.117060932551654,1
35.053,0.5303030303030303,0.0850061840489638,-0.0661502665395703,1
35.104,0.5416666666666667,0.0962957519848453,-0.0153436686473913,1
35.154,0.5757575757575757,0.1185137203368643,0.0350639203462268,1
35.205,0.5151515151515151,0.1916470684052142,0.0850800538667284,1
35.256,0.5151515151515151,0.3217458215225886,0.1353874387533542,1
35.306,0.5378787878787878,0.4101351215913763,0.1853998097605638,1
35.357,0.5454545454545454,0.5021277203482648,0.2345074857618616,1
35.408,0.5492424242424243,0.5291304517822086,0.2821366510317009,1
35.458,0.5227272727272727,0.5347058339845718,0.3276827815003771,1
35.509,0.5151515151515151,0.538782433087069,0.3705499195604274,1
35.56,0.5189393939393938,0.4797416207360391,0.4101494374193217,1
35.61,0.5454545454545454,0.3315313934175991,0.4470205255778205,1
35.661,0.5075757575757576,0.1998741236518494,0.4821796405926437,1
35.711,0.5303030303030303,0.1229467246796845,0.5155523689703618,1
35.762,0.5378787878787878,0.0911753750044807,0.5470393107804838,1
35.813,0.5606060606060606,0.0769118500946322,0.5765847244531987,1
35.863,0.5378787878787878,0.0905398915910165,0.6040983151025778,1
35.914,0.5378787878787878,0.1022353139538355,0.6295707236155037,1
35.965,0.5227272727272727,0.1250727863272747,0.6530032345247778,1
36.015,0.5189393939393938,0.1634706781644513,0.6743514735666696,1
36.066,0.5568181818181819,0.2563671226512418,0.693687632333245,1
36.117,0.5492424242424243,0.4036326713960101,0.7110454024229842,1
36.168,0.5378787878787878,0.5640095529864407,0.7265021337950528,1
36.218,0.5189393939393938,0.6606206689978394,0.7401006230924962,1
36.269,0.5454545454545454,0.657879609234984,0.7519757082115817,1
36.321,0.5227272727272727,0.5691105579662177,0.7622081725742076,1
36.372,0.5113636363636362,0.4845005662169577,0.7709819463359064,1
36.423,0.5265151515151514,0.4061504342282721,0.7783080326025313,1
36.474,0.553030303030303,0.3556988873495412,0.7833895232654955,1
36.524,0.5492424242424243,0.237366640268841,0.7862255007836287,1
36.575,0.5037878787878787,0.1802782829490597,0.7868245061318961,1
36.625,0.5378787878787878,0.1460274071159186,0.7851876286170749,1
36.676,0.5,0.1408507998429212,0.7813510537964645,1
36.727,0.5340909090909092,0.1339790224020484,0.7753714367895532,1
36.777,0.5151515151515151,0.1377080608074273,0.767284467491121,1
36.828,0.5151515151515151,0.1570821750825292,0.7571609320464741,1
36.878,0.5340909090909092,0.180827352323617,0.7450920861631012,1
36.929,0.5454545454545454,0.2031150519913325,0.7311482203237887,1
36.98,0.5227272727272727,0.2331627670229642,0.7154382830259398,1
37.03,0.5227272727272727,0.2551325080109771,0.6985999575412167,1
37.081,0.5189393939393938,0.2930547903516231,0.6806612592484571,1
37.132,0.5416666666666667,0.3546289004138906,0.6616722988754842,1
37.182,0.5340909090909092,0.4094183963593047,0.6416109882352852,1
37.233,0.5378787878787878,0.4353192375644482,0.6205799735723132,1
37.283,0.553030303030303,0.4267929333212245,0.5986561140518174,1
37.334,0.5037878787878787,0.4014327966167458,0.5759133681219706,1
37.384,0.5378787878787878,0.3737726765636709,0.5524764469129875,1
37.435,0.4924242424242424,0.3377686881704605,0.5284705574658082,1
37.486,0.5303030303030303,0.3191626250513313,0.5040370671802976,1
37.537,0.5416666666666667,0.2779905274367131,0.4793144427392417,1
37.588,0.5681818181818181,0.240309783029368,0.4544703040692113,1
37.64,0.5189393939393938,0.2289999455313426,0.4297611262812584,1
37.691,0.5151515151515151,0.2353708373644627,0.4053509707728224,1
37.743,0.5568181818181819,0.2338624816869713,0.3814620067384022,1
37.794,0.5189393939393938,0.2543491990902053,0.3579742884603973,1
37.845,0.5265151515151514,0.2710367954978856,0.3337648417093986,1
37.896,0.5189393939393938,0.3043691943731716,0.3088092520540511,1
37.946,0.5340909090909092,0.3324813639961532,0.2830643926228529,1
37.997,0.5189393939393938,0.3609424614563583,0.2565148616523314,1
38.048,0.5416666666666667,0.3750111649404058,0.2291346308206101,1
38.098,0.5189393939393938,0.3910723908749197,0.2009157363134406,1
38.149,0.5189393939393938,0.3885704925984992,0.17183024066511,1
38.2,0.5340909090909092,0.3833851480536747,0.1418577769596849,1
38.25,0.5378787878787878,0.3707925852093532,0.1110057033892606,1
38.301,0.571969696969697,0.3655548211310974,0.0792707515875306,1
38.352,0.5151515151515151,0.3565435829403342,0.0466677176958114,1
38.404,0.5189393939393938,0.319888200543689,0.0123249499437494,1
38.454,0.5,0.2795436202129218,-0.0242113321258647,1
38.505,0.5227272727272727,0.2562445873860614,-0.0626051094979134,1
38.556,0.5151515151515151,0.2197679164202001,-0.10255318756648,1
38.607,0.5340909090909092,0.1869229045603456,-0.1437360524953406,1
38.658,0.5113636363636362,0.1868287527500955,-0.185867014857473,1
38.709,0.4848484848484848,0.2095830785563429,-0.2286430659955498,1
38.76,0.5151515151515151,0.1983863148108742,-0.2717940216614414,1
38.811,0.5303030303030303,0.2109695036811453,-0.3150468919332363,1
38.861,0.5757575757575757,0.2648613639746439,-0.3581450195928681,1
38.913,0.5227272727272727,0.3114434996782885,-0.4008142750169781,1
38.964,0.5303030303030303,0.3121967807997439,-0.4428298559844763,1
39.015,0.5492424242424243,0.3956977932021336,-0.4839329278566793,1
39.066,0.5340909090909092,0.4776548743078738,-0.5239153141531565,1
39.116,0.5189393939393938,0.5242172094975566,-0.5625428388731077,1
39.167,0.5303030303030303,0.514706444913737,-0.5996007313027671,1
39.217,0.5378787878787878,0.4660598485946876,-0.634548789144372,1
39.268,0.5189393939393938,0.3886685024760608,-0.6671689087462305,1
39.319,0.5416666666666667,0.3106775731870459,-0.6973647415415312,1
39.37,0.5,0.2308628154063751,-0.7250336496352738,1
39.421,0.5340909090909092,0.167108598639889,-0.7500642977281555,1
39.471,0.5037878787878787,0.1450592150856348,-0.7723746912756637,1
39.522,0.5265151515151514,0.1463216301958942,-0.791876546405095,1
39.573,0.5113636363636362,0.1205236611355738,-0.8084772159248377,1
39.624,0.5378787878787878,0.1146966333429033,-0.8227567689394308,1
39.674,0.553030303030303,0.1660611760624351,-0.8347619060899745,1
39.725,0.5227272727272727,0.2348115740519031,-0.8445749781108227,1
39.776,0.5416666666666667,0.275578197160215,-0.852213721090237,1
39.827,0.5416666666666667,0.4317044951094665,-0.8577745364175626,1
39.878,0.5378787878787878,0.5856111845256696,-0.8613415931472113,1
39.929,0.5037878787878787,0.7603374309854141,-0.8630084274369221,1
39.98,0.553030303030303,0.7771753135047709,-0.862877942547762,1
40.031,0.5303030303030303,0.6239926313334792,-0.8610624088441263,1
40.082,0.5378787878787878,0.4050554649275717,-0.8576834637937365,1
40.134,0.5151515151515151,0.2449513311987392,-0.8526797161428701,1
40.184,0.5037878787878787,0.1441693593465012,-0.8460157251446769,1
40.235,0.5340909090909092,0.0919939924208684,-0.8379743676064579,1
40.285,0.5265151515151514,0.071537521480278,-0.8287587996921895,1
40.336,0.5416666666666667,0.0660367353372379,-0.8186090102723973,1
40.387,0.5075757575757576,0.0737758602620909,-0.807778597303416,1
40.438,0.5568181818181819,0.0952334818326351,-0.796484453306084,1
40.489,0.5492424242424243,0.1457257474009239,-0.7850064028290233,1
40.54,0.553030303030303,0.2397639953900211,-0.7735825067310347,1
40.591,0.5151515151515151,0.3479526055398392,-0.7625046433687779,1
40.641,0.5189393939393938,0.5120594115191194,-0.7520492103990177,1
40.692,0.5265151515151514,0.636251389240626,-0.7424987242168826,1
40.743,0.5492424242424243,0.7349743116704974,-0.734149310303311,1
40.794,0.5454545454545454,0.7059040127159518,-0.7272603887037439,1
40.845,0.5075757575757576,0.579807179904895,-0.7221543114914071,1
40.895,0.5113636363636362,0.4218020732333906,-0.7191454403870718,1
40.946,0.4924242424242424,0.2960367802265733,-0.7185377146659395,1
40.997,0.553030303030303,0.1549771569888122,-0.7195884588145667,1
41.048,0.5227272727272727,0.1007113483714873,-0.7218006535502359,1
41.098,0.5378787878787878,0.0898859818534768,-0.7256424840895028,1
41.149,0.5340909090909092,0.0927549009770075,-0.7309535475334268,1
41.2,0.5303030303030303,0.1074538046926572,-0.7375668241834792,1
41.25,0.5227272727272727,0.1353317405155257,-0.7453264273264746,1
41.301,0.5113636363636362,0.1754796832933491,-0.7540686538219794,1
41.352,0.5492424242424243,0.2360093606944348,-0.7636287161304716,1
41.402,0.5378787878787878,0.2758825790765948,-0.7738352099128414,1
41.453,0.5643939393939394,0.3286673976705723,-0.7845180890908945,1
41.503,0.5037878787878787,0.3651236090532161,-0.7955214727978179,1
41.554,0.5265151515151514,0.3835678186184635,-0.8066748409402207,1
41.605,0.5075757575757576,0.3952691510654114,-0.8178176646191113,1
41.655,0.5378787878787878,0.4140829033940433,-0.8287650588212139,1
41.706,0.5227272727272727,0.4206466373252768,-0.8393513044158163,1
41.757,0.553030303030303,0.4020397618135971,-0.8494028658449586,1
41.808,0.5416666666666667,0.3688981966242089,-0.8591456873667278,1
41.859,0.5416666666666667,0.3497735058968501,-0.8691697329078052,1
41.91,0.5340909090909092,0.3011454768869667,-0.8796837004028741,1
41.961,0.4962121212121211,0.269307682366817,-0.8904039728398303,1
42.011,0.553030303030303,0.2396999241290002,-0.90103264069527,1
42.062,0.5303030303030303,0.2333252793528042,-0.9113384713716212,1
42.113,0.5303030303030303,0.2243046325081912,-0.9210452301749276,1
42.163,0.5,0.2215599725083188,-0.9299433593370624,1
42.214,0.5227272727272727,0.2291260415981098,-0.9377782989935148,1
42.266,0.5151515151515151,0.2451547791487168,-0.9443874034327628,1
42.316,0.5643939393939394,0.2637143845356698,-0.9495072926369266,1
42.367,0.5568181818181819,0.2940809699375508,-0.952971973099044,1
42.418,0.5265151515151514,0.3149248266347646,-0.9545704492157688,1
42.468,0.5113636363636362,0.3397166083937795,-0.954158402309585,1
42.519,0.5189393939393938,0.3509038186521811,-0.9515717488337498,1
42.57,0.5416666666666667,0.366061610438313,-0.9466321127302212,1
42.621,0.5303030303030303,0.3771166175858072,-0.9392277948667886,1
42.671,0.553030303030303,0.3656478326367411,-0.9292020940148568,1
42.722,0.5037878787878787,0.3362195903804353,-0.9164669390440944,1
42.772,0.5378787878787878,0.3283975442159444,-0.900549931945954,1
42.823,0.5340909090909092,0.3051528236209501,-0.88161994436854,1
42.874,0.5340909090909092,0.2860082803096408,-0.8598615301924835,1
42.924,0.5075757575757576,0.2750866154979288,-0.8354741626251863,1
42.975,0.5303030303030303,0.2684843469311335,-0.8086457687715871,1
43.026,0.5378787878787878,0.2490404283569705,-0.7795872105277877,1
43.076,0.5265151515151514,0.255000574973329,-0.7485010004910384,1
43.127,0.5606060606060606,0.2718537843725769,-0.715612060932804,1
43.178,0.5378787878787878,0.2978533963169171,-0.6811356299933737,1
43.229,0.5416666666666667,0.31434193857074,-0.6453093554872493,1
43.279,0.5037878787878787,0.3392011942644428,-0.6083612010977593,1
43.33,0.5492424242424243,0.3466169901142307,-0.5705324256525186,1
43.38,0.5303030303030303,0.3514866237539976,-0.5320711450319049,1
43.431,0.5454545454545454,0.355330718150653,-0.4932403944430654,1
43.481,0.5,0.3476226126331264,-0.4542916629906841,1
43.533,0.5416666666666667,0.3248712324198345,-0.4154993745706075,1
43.583,0.5606060606060606,0.3058076822536156,-0.3771459708683911,1
43.634,0.5189393939393938,0.2724022362890078,-0.3393158226885915,1
43.684,0.5265151515151514,0.2593250758395527,-0.3016429103411782,1
43.735,0.5227272727272727,0.2575360346706176,-0.2642688193391738,1
43.786,0.5568181818181819,0.2567234685053793,-0.2273426132107037,1
43.836,0.5,0.2447570483598832,-0.1909946315277757,1
43.887,0.5492424242424243,0.2631545617209381,-0.1553775083168265,1
43.937,0.5227272727272727,0.2955424845026506,-0.1206357984114729,1
43.988,0.5643939393939394,0.3272997977342087,-0.0869215346604366,1
44.039,0.5416666666666667,0.3592406417178835,-0.0542706210917711,1
44.09,0.5340909090909092,0.3964793965254553,-0.0226532397587844,1
44.14,0.5151515151515151,0.3973304418568152,0.0077236459569034,1
44.191,0.5416666666666667,0.3838255129320176,0.0366520803808962,1
44.242,0.5113636363636362,0.3672104783567236,0.0639166030924673,1
44.293,0.4962121212121211,0.3436396602378077,0.0893173105705624,1
44.343,0.5416666666666667,0.3029491422722487,0.112651846076321,1
44.394,0.5265151515151514,0.2532543016894402,0.1337103481245547,1
44.444,0.5492424242424243,0.1920849119315961,0.1530181078705634,1
44.495,0.5037878787878787,0.1564977708274862,0.1710148856441935,1
44.545,0.5416666666666667,0.1505084915801294,0.1877358348422992,1
44.596,0.5113636363636362,0.171136366481008,0.203194632944045,1
44.646,0.5340909090909092,0.1702341939116646,0.2174725746143515,1
44.697,0.5265151515151514,0.1947806360016825,0.2306066323491253,1
44.748,0.5416666666666667,0.2635867529512571,0.2426972835966152,1
44.799,0.5416666666666667,0.3956178892158623,0.2538009439686064,1
44.85,0.571969696969697,0.4826626354582642,0.2640720955151776,1
44.9,0.5416666666666667,0.5304625543588601,0.2735613140065567,1
44.951,0.5340909090909092,0.5085846608074548,0.2824120296258852,1
45.002,0.5492424242424243,0.4624183822015436,0.2907233503872923,1
45.053,0.5113636363636362,0.4247662122881759,0.2986578892572478,1
45.103,0.5227272727272727,0.3839384320347452,0.3063649069508463,1
45.154,0.4772727272727273,0.2955622940570697,0.313973378648849,1
45.205,0.5151515151515151,0.1982020820979823,0.321678435792748,1
45.256,0.5454545454545454,0.1279028576369001,0.3296296870625412,1
45.307,0.5833333333333333,0.087156288448722,0.3377603952018195,1
45.357,0.5568181818181819,0.1001792846667975,0.3453867948715468,1
45.408,0.5340909090909092,0.1517792702327748,0.3525101509613439,1
45.458,0.5189393939393938,0.1791272431506765,0.3591269886832564,1
45.509,0.5,0.1985780704602546,0.3652536744859498,1
45.56,0.5037878787878787,0.2933535309377839,0.3716832738326796,1
45.61,0.5340909090909092,0.4817734627756635,0.3786281094001924,1
45.661,0.5757575757575757,0.6148209887795286,0.3858416955337187,1
45.712,0.5340909090909092,0.601411212997733,0.393152927042609,1
45.762,0.5113636363636362,0.4565966893044739,0.4003611013409323,1
45.812,0.5113636363636362,0.2970598172997654,0.4072726263128916,1
45.863,0.5189393939393938,0.208000537569815,0.4137371965014162,1
45.914,0.5151515151515151,0.1781392055887241,0.4195857239003828,1
45.964,0.5492424242424243,0.1764645958409712,0.4246924071623925,1
46.015,0.5454545454545454,0.2016880745144797,0.4289339413501603,1
46.066,0.5340909090909092,0.2301908588393397,0.4321921423300723,1
46.116,0.553030303030303,0.287003592045308,0.4343399203716647,1
46.167,0.5265151515151514,0.3442281837529289,0.4353095501416018,1
46.218,0.5265151515151514,0.3808140399475844,0.4349896825107411,1
46.268,0.5189393939393938,0.3807670184043912,0.4333443488140549,1
46.319,0.5189393939393938,0.3595821122642045,0.4303168081710051,1
46.37,0.5075757575757576,0.2885559130920707,0.4258414141042013,1
46.421,0.5416666666666667,0.2206726969097061,0.4199030593536137,1
46.472,0.5606060606060606,0.1878836611412982,0.4124891330693234,1
46.523,0.5265151515151514,0.1405182153466198,0.4035921452050859,1
46.574,0.5,0.1283383170429585,0.3931957001178046,1
46.624,0.5189393939393938,0.1529545516635063,0.3812154155644225,1
46.675,0.5454545454545454,0.1566389408619166,0.3674074702045207,1
46.726,0.5075757575757576,0.1773113495808932,0.3517231566829335,1
46.776,0.5606060606060606,0.2753985016379454,0.3341678459469595,1
46.827,0.571969696969697,0.4106877177425201,0.3147334160182451,1
46.878,0.5643939393939394,0.5065316885573405,0.2934202931111129,1
46.928,0.5037878787878787,0.6475993263966202,0.2702371913000032,1
46.979,0.5189393939393938,0.700837182741164,0.2452052247528944,1
47.03,0.5151515151515151,0.6558860953195851,0.2183327768712746,1
47.08,0.5643939393939394,0.5822930885587624,0.1893123828589615,1
47.131,0.5340909090909092,0.5059749870699273,0.1575853917930283,1
47.181,0.5151515151515151,0.3308152189145819,0.1234279381624121,1
47.232,0.5378787878787878,0.1696676604999209,0.0871170007237354,1
47.283,0.5227272727272727,0.095210512697567,0.0489281661604832,1
47.334,0.5303030303030303,0.0711554516408402,0.0091398664112856,1
47.384,0.5,0.070327373796211,-0.0319686223175454,1
47.435,0.5416666666666667,0.0923615836054901,-0.0741182620766873,1
47.485,0.5189393939393938,0.1243196593332875,-0.1170291407642576,1
47.536,0.5265151515151514,0.1598463109216873,-0.1604203720101473,1
47.587,0.5189393939393938,0.2148045612075946,-0.2040117595144464,1
47.637,0.5492424242424243,0.2831089361201822,-0.2475202617221024,1
47.688,0.5416666666666667,0.3509917278862983,-0.2906619928103793,1
47.739,0.5340909090909092,0.4065546185857535,-0.3331529981046497,1
47.79,0.5227272727272727,0.4356065854218854,-0.374708552075452,1
47.84,0.5265151515151514,0.4453958950857268,-0.4150425814304239,1
47.891,0.5189393939393938,0.4515879934204498,-0.4538695160277011,1
47.942,0.5189393939393938,0.4319512273538916,-0.49090377379268,1
47.992,0.5151515151515151,0.3621734137581532,-0.5274469350116091,1
48.043,0.5189393939393938,0.2838948866654916,-0.5631560396777311,1
48.094,0.5454545454545454,0.2177608218993854,-0.5974044144606989,1
48.145,0.5113636363636362,0.1741502614914732,-0.6304873962493964,1
48.196,0.5227272727272727,0.1635777504391841,-0.6623807107172823,1
48.247,0.5037878787878787,0.1820517903723554,-0.6926601199644529,1
48.297,0.5454545454545454,0.18717797923194,-0.7210547332617252,1
48.348,0.5454545454545454,0.2188543042359022,-0.7472528176334572,1
48.399,0.5378787878787878,0.2550862652501487,-0.7709419183294537,1
48.449,0.5303030303030303,0.312037982529883,-0.791881742878966,1
48.5,0.5113636363636362,0.3921610968382282,-0.8097732351078977,1
48.551,0.5454545454545454,0.4566548998907582,-0.8244706860128705,1
48.601,0.5075757575757576,0.4738102220612418,-0.8357875443440479,1
48.652,0.5227272727272727,0.4657342965736072,-0.8435624300962254,1
48.705,0.5227272727272727,0.4163256467557454,-0.8475964785200114,1
48.756,0.5833333333333333,0.3585746342931307,-0.8478441720367322,1
48.807,0.5378787878787878,0.2921545705536502,-0.8441564948324409,1
48.858,0.4886363636363635,0.2541456852327227,-0.835775712209831,1
48.908,0.5416666666666667,0.2088157721055922,-0.8217716454567641,1
48.959,0.5340909090909092,0.1827172418079243,-0.8024774175121088,1
49.01,0.5643939393939394,0.1642645882851026,-0.7782843155655317,1
49.061,0.4924242424242424,0.1797390663474952,-0.7495732642020645,1
49.113,0.5303030303030303,0.1958939220666068,-0.7167334884036574,1
49.164,0.5378787878787878,0.2312896156521265,-0.6801368773914478,1
49.215,0.5606060606060606,0.2850262094184607,-0.6402146692219457,1
49.266,0.5909090909090908,0.3211990208084006,-0.5973851233894203,1
49.316,0.5492424242424243,0.3511714273127105,-0.5520491636273246,1
49.367,0.5378787878787878,0.4283336752039551,-0.5046670625044862,1
49.418,0.5189393939393938,0.4759683668325715,-0.4556849294429135,1
49.469,0.5643939393939394,0.4397287026849868,-0.4055612316651711,1
49.519,0.5189393939393938,0.4439288259151221,-0.3547627367907413,1
49.57,0.5378787878787878,0.5011055312219744,-0.303764769697481,1
49.621,0.5113636363636362,0.4637072979855397,-0.2530291200446153,1
49.672,0.5151515151515151,0.3322490943206847,-0.2026212678435821,1
49.723,0.5227272727272727,0.1977751257320417,-0.1521288019058095,1
49.773,0.5340909090909092,0.1267253950846928,-0.1018266664229998,1
49.824,0.5378787878787878,0.1277478101957281,-0.05199040205878,1
49.875,0.5227272727272727,0.1484806960671479,-0.0028945518967571,1
49.926,0.5378787878787878,0.156313785544568,0.0451836631121591,1
49.976,0.5227272727272727,0.186806194771779,0.0919676101297102,1
50.027,0.5265151515151514,0.2363313809625878,0.1371764493496017,1
50.077,0.5075757575757576,0.3153815784134729,0.1805337510941718,1
50.128,0.5606060606060606,0.370574521578627,0.221758551999375,1
50.179,0.5340909090909092,0.4103864574599934,0.2605717508191456,1
50.229,0.5113636363636362,0.4220125520982377,0.2966915684401146,1
50.279,0.5189393939393938,0.4136208611864229,0.3298356292769848,1
50.33,0.5113636363636362,0.3948963765705241,0.359722555324482,1
50.381,0.5378787878787878,0.3380800281023821,0.3861398357932373,1
50.431,0.5378787878787878,0.3029234178240203,0.4089329029863462,1
50.482,0.5340909090909092,0.2692144057581548,0.427775925733171,1
50.533,0.5227272727272727,0.2178867446473608,0.4423397850757413,1
50.583,0.5265151515151514,0.1943140897126996,0.4542319561416885,1
50.634,0.4962121212121211,0.2010421769446457,0.4638210143877161,1
50.684,0.5340909090909092,0.2260163688878052,0.4712602766443012,1
50.735,0.5454545454545454,0.2349623409947994,0.476683602493686,1
50.786,0.5416666666666667,0.2873139418629232,0.480239015251565,1
50.836,0.5303030303030303,0.336595993345117,0.4820540479798154,1
50.887,0.5416666666666667,0.371378173277691,0.4823509010666327,1
50.938,0.5378787878787878,0.4199688734000571,0.4813323176519755,1
50.988,0.553030303030303,0.4433034374154299,0.4792152046092601,1
51.039,0.5492424242424243,0.4276913801201534,0.4762407130900032,1
51.09,0.5037878787878787,0.3820038272656726,0.4726187421488492,1
51.14,0.553030303030303,0.3357938390083629,0.4686545394651644,1
51.191,0.5189393939393938,0.3039557213250373,0.4646408340267887,1
51.241,0.5265151515151514,0.2467234788151495,0.4608838372566102,1
51.292,0.5,0.2006530789346031,0.4576623317669903,1
51.342,0.5568181818181819,0.1587390402731116,0.4553504487950124,1
51.393,0.5340909090909092,0.1208080624449763,0.4542650663543135,1
51.443,0.5340909090909092,0.1275932119748389,0.4538872778280343,1
51.494,0.5151515151515151,0.1826147496492365,0.4531606063965268,1
51.545,0.5568181818181819,0.1686393449584417,0.4520776184112005,1
51.595,0.5340909090909092,0.145321069308668,0.4506307890668144,1
51.646,0.5492424242424243,0.321575055101143,0.448822839807582,1
51.696,0.553030303030303,0.6796445454579674,0.4466533605265055,1
51.747,0.5340909090909092,0.9672555674130172,0.4441223759902728,1
51.798,0.5113636363636362,1.0,0.4412344032428965,1
51.849,0.5037878787878787,0.7446429855828509,0.4379946510635255,1
51.9,0.5416666666666667,0.3194633478416832,0.434408763104996,1
51.951,0.5075757575757576,0.0725702745196542,0.4310712955111131,1
52.002,0.5416666666666667,0.0535286626903147,0.4282040367881761,1
52.052,0.5416666666666667,0.0547757419272849,0.425634464844117,1
52.103,0.5340909090909092,0.0490290335424077,0.4231985603484602,1
52.154,0.5416666666666667,0.0524585298884567,0.4207405498708847,1
52.205,0.5151515151515151,0.096006843105839,0.4180958099888308,1
52.255,0.5340909090909092,0.1611973372933133,0.4151549335700473,1
52.306,0.5340909090909092,0.2583305628464989,0.4117910192747742,1
52.357,0.5492424242424243,0.3415819763038905,0.4078894690670407,1
52.407,0.5378787878787878,0.3023615571241096,0.4033653409684872,1
52.458,0.5303030303030303,0.3383878773695813,0.3981163786682176,1
52.509,0.5113636363636362,0.3018466849873996,0.392010502442047,1
52.56,0.5227272727272727,0.2998951204310669,0.3849951475177255,1
52.61,0.5227272727272727,0.3771745901722486,0.3770043123191313,1
52.661,0.5606060606060606,0.3297066634437876,0.3679579032896951,1
52.711,0.5378787878787878,0.373123982199523,0.3578348437053389,1
52.762,0.5378787878787878,0.2901461147487503,0.3465953780499009,1
52.813,0.5568181818181819,0.3121630821867622,0.3341909008149848,1
52.863,0.5075757575757576,0.3877600525483077,0.3206280227825027,1
52.914,0.5151515151515151,0.3257982175797673,0.3059170138228753,1
52.965,0.5037878787878787,0.2385475048942875,0.2899458206732053,1
53.016,0.5303030303030303,0.2926391334513673,0.2725315005235216,1
53.067,0.5303030303030303,0.3535046186950392,0.2536192378499531,1
53.118,0.5416666666666667,0.5622015794502648,0.2332118836717396,1
53.169,0.5416666666666667,0.9087055381630424,0.2112732066309099,1
53.22,0.553030303030303,0.921337760678586,0.1878214999246594,1
53.271,0.5492424242424243,0.4863696172381252,0.1628571276689956,1
53.322,0.5227272727272727,0.1989015258758605,0.136388265006381,1
53.373,0.5340909090909092,0.2111430490387394,0.1084347213920891,1
53.424,0.5113636363636362,0.2162778674893396,0.0777911110814693,1
53.474,0.5075757575757576,0.2164926983933127,0.0446348878995657,1
53.525,0.5113636363636362,0.2782963267718969,0.0092682014103724,1
53.576,0.5606060606060606,0.287676252463375,-0.0280003148435161,1
53.627,0.5416666666666667,0.3032329881383631,-0.0668725563529628,1
53.679,0.5416666666666667,0.3307438181513815,-0.1070457298686022,1
53.731,0.553030303030303,0.3499907094521109,-0.1482281540455883,1
53.781,0.5189393939393938,0.3821326017832567,-0.1901324254035268,1
53.832,0.5416666666666667,0.375371679535235,-0.2324664517217969,1
53.883,0.5,0.4063824772972149,-0.2749530759706449,1
53.933,0.5454545454545454,0.4105570153722777,-0.3173086571417145,1
53.984,0.5189393939393938,0.4044617571644468,-0.3592600832601045,1
54.035,0.5340909090909092,0.4220674691549741,-0.4005308675533756,1
54.085,0.5265151515151514,0.3838570895677222,-0.4408550522825423,1
54.136,0.5378787878787878,0.3470771046342534,-0.4799671281974276,1
54.188,0.5227272727272727,0.3005577082822994,-0.5176013532382533,1
54.239,0.5075757575757576,0.3006369642190814,-0.553497831001597,1
54.29,0.5378787878787878,0.307546091977616,-0.5874113714321991,1
54.34,0.5340909090909092,0.3394643254657213,-0.6190899449359979,1
54.391,0.553030303030303,0.3472689453389529,-0.6482799316882981,1
54.441,0.5227272727272727,0.3909420625015803,-0.6747428498889483,1
54.492,0.5378787878787878,0.4726444040463455,-0.6982427109216927,1
54.543,0.5227272727272727,0.5575870176482058,-0.7192415656705418,1
54.594,0.5340909090909092,0.5893861109102899,-0.7380501108808997,1
54.645,0.5378787878787878,0.5796433815946752,-0.7546499770087067,1
54.696,0.5454545454545454,0.5165670774664165,-0.7690342293073438,1
54.746,0.5454545454545454,0.4433967117893366,-0.7812073678276354,1
54.797,0.5,0.3777262925260825,-0.7911543733085804,1
54.848,0.5037878787878787,0.3172207724842143,-0.7989298890688881,1
54.899,0.5075757575757576,0.2548068723901287,-0.8045724953399953,1
54.949,0.5340909090909092,0.2361862445022519,-0.8081322071507806,1
55.0,0.5378787878787878,0.2062923862025046,-0.8096962144352191,1
55.051,0.553030303030303,0.188313157705639,-0.8093421685036779,1
55.101,0.5265151515151514,0.2319149711047646,-0.8071130691252324,1
55.152,0.5416666666666667,0.300838295849507,-0.8031197034375672,1
55.203,0.553030303030303,0.3305501062113054,-0.7978173231691585,1
55.254,0.5265151515151514,0.4007865711655181,-0.7913870279346185,1
55.305,0.5303030303030303,0.5528251089947621,-0.7838771366730679,1
55.356,0.5075757575757576,0.7282621087489397,-0.7753153914739708,1
55.407,0.5227272727272727,0.8018198449220889,-0.7657530751926562,1
55.458,0.5075757575757576,0.7227670353358511,-0.7552854689476389,1
55.508,0.5492424242424243,0.5373779976470846,-0.744013017115436,1
55.559,0.5416666666666667,0.3552911336469464,-0.7320387314173731,1
55.61,0.5113636363636362,0.2358664118382345,-0.7194840616052756,1
55.66,0.5340909090909092,0.1727490820860192,-0.7064604743703493,1
55.711,0.5378787878787878,0.1499218650320162,-0.6931419069795408,1
55.763,0.5416666666666667,0.165425981068175,-0.6796711603431582,1
55.813,0.5113636363636362,0.197564468923572,-0.6662535059472487,1
55.864,0.5378787878787878,0.2508215205296888,-0.6530736384282052,1
55.915,0.5189393939393938,0.3296233282771876,-0.6403655332959379,1
55.966,0.5568181818181819,0.4174316691488972,-0.6283756313955113,1
56.017,0.5303030303030303,0.4425742861638246,-0.6158406826128489,1
56.067,0.5303030303030303,0.4549409173430255,-0.6026139283568437,1
56.118,0.5416666666666667,0.4734590560266804,-0.5886563699740346,1
56.169,0.5378787878787878,0.470656522467287,-0.5739385015838141,1
56.22,0.5265151515151514,0.474314374163063,-0.5578426483614043,1
56.271,0.5075757575757576,0.4936434992139006,-0.5393385211895636,1
56.322,0.5454545454545454,0.4551638123146714,-0.5187603222552843,1
56.374,0.5189393939393938,0.410398159259007,-0.4964370210712845,1
56.425,0.5454545454545454,0.4091110946165749,-0.4726934684159718,1
56.476,0.5340909090909092,0.4229243642947359,-0.4478515749983405,1
56.527,0.5454545454545454,0.3717221148091194,-0.4221865583929123,1
56.578,0.5303030303030303,0.3577385410571336,-0.3959861118305987,1
56.628,0.5075757575757576,0.3580766523691796,-0.3695275586389974,1
56.679,0.5303030303030303,0.3405232489890604,-0.3430778522423998,1
56.73,0.5189393939393938,0.3290755543873495,-0.3168935761617812,1
56.78,0.5568181818181819,0.3226975808656789,-0.2912209440148094,1
56.831,0.4962121212121211,0.3157938015007419,-0.2663202729691565,1
56.882,0.5227272727272727,0.3124526102773004,-0.2423849429667326,1
56.933,0.5340909090909092,0.3257440600316065,-0.2196293750902986,1
56.984,0.5378787878787878,0.3285796323147243,-0.198282706361784,1
57.035,0.5340909090909092,0.3403510679973336,-0.1784919213438032,1
57.086,0.5075757575757576,0.3490154325834418,-0.1604755513822531,1
57.136,0.5454545454545454,0.342701087271504,-0.144395277447856,1
57.187,0.5189393939393938,0.3441121431802463,-0.1304272691663253,1
57.239,0.5454545454545454,0.3495221159587336,-0.1187010465072528,1
57.29,0.5227272727272727,0.4061837697034043,-0.1093585718023857,1
57.341,0.5189393939393938,0.4421935630459186,-0.1025314041859313,1
57.392,0.5303030303030303,0.4901449085866284,-0.0983470441832499,1
57.443,0.5189393939393938,0.5359463009706115,-0.0969298494166133,1
57.494,0.5606060606060606,0.6040100082876088,-0.0983575278521668,1
57.545,0.5454545454545454,0.5954605954113578,-0.1027202298182135,1
57.596,0.5227272727272727,0.5658875812818505,-0.1107858557207417,1
57.647,0.5037878787878787,0.5292874630681557,-0.1225791892015926,1
57.698,0.5568181818181819,0.4669938908494693,-0.1379913844218228,1
57.748,0.4962121212121211,0.3899137063669025,-0.156928783074004,1
57.799,0.5075757575757576,0.2982024571227071,-0.1788614697131727,1
57.85,0.5492424242424243,0.2135472409928166,-0.2034087909518427,1
57.901,0.5340909090909092,0.1764710224889408,-0.2303317891808234,1
57.952,0.5151515151515151,0.1808345515958616,-0.259416743220799,1
58.003,0.5227272727272727,0.2006347421745725,-0.2903969206921837,1
58.054,0.5378787878787878,0.2174313580089416,-0.3230168052856399,1
58.104,0.5189393939393938,0.2621768931032832,-0.3570313193790979,1
58.155,0.5340909090909092,0.3452389177608971,-0.3921538278987233,1
58.206,0.5113636363636362,0.4635974724116039,-0.4281048427460661,1
58.256,0.5568181818181819,0.5565649702512709,-0.4645968421973925,1
58.308,0.5265151515151514,0.6175392546812712,-0.5013376148977873,1
58.358,0.5075757575757576,0.581005083335086,-0.5380195312134093,1
58.409,0.5492424242424243,0.5302237459318504,-0.5747091609212418,1
58.459,0.5643939393939394,0.4749674363948967,-0.6124454698939246,1
58.51,0.5265151515151514,0.4105907257680274,-0.6505145714146972,1
58.561,0.4810606060606059,0.3291024072151575,-0.6882065346323984,1
58.612,0.5454545454545454,0.2787173336414171,-0.7248522000998361,1
58.663,0.5227272727272727,0.2608385730739014,-0.759806368008314,1
58.713,0.5113636363636362,0.2547209018422003,-0.7923606564987227,1
58.764,0.5189393939393938,0.3039397379120018,-0.8218527394517443,1
58.815,0.5492424242424243,0.3583833989711419,-0.8483166512270552,1
58.865,0.5568181818181819,0.3983047284298683,-0.8726947159586016,1
58.916,0.5340909090909092,0.4611977709491629,-0.8947028049197883,1
58.968,0.5378787878787878,0.493346447711899,-0.914117570570944,1
59.019,0.5075757575757576,0.5657888145377054,-0.9307376383970164,1
59.07,0.5454545454545454,0.6718383704723022,-0.9443926540095569,1
59.12,0.5113636363636362,0.6909914049959782,-0.9549052668770308,1
59.172,0.5227272727272727,0.522178473871309,-0.9621082404451292,1
59.222,0.5189393939393938,0.3112385292839777,-0.9643433304105982,1
59.273,0.5378787878787878,0.169912373985643,-0.961183822590116,1
59.324,0.5075757575757576,0.1447400443347433,-0.9530149592430326,1
59.375,0.5378787878787878,0.120845080869362,-0.9402370294713218,1
59.426,0.571969696969697,0.1285796292805967,-0.9232155990118394,1
59.477,0.5189393939393938,0.1636626208631411,-0.90234845999332,1
59.528,0.5303030303030303,0.2103185815257524,-0.8780323205762126,1
59.578,0.5075757575757576,0.280297183950097,-0.8506438979104358,1
59.629,0.553030303030303,0.3625853277587325,-0.8206392620084291,1
59.68,0.5416666666666667,0.4530926588159291,-0.7883673322158518,1
59.731,0.5606060606060606,0.5423801997454616,-0.7542671457597521,1
59.782,0.5416666666666667,0.5778849893355891,-0.7187120496605943,1
59.833,0.5075757575757576,0.6270572543876721,-0.6821345419787619,1
59.884,0.5643939393939394,0.6978368152233986,-0.6449512007757989,1
59.936,0.5265151515151514,0.7319338210767097,-0.6075814586624204,1
59.987,0.5189393939393938,0.6579095429052471,-0.5704476027985119,1
60.038,0.5303030303030303,0.545222434360025,-0.5339641216268851,1
60.088,0.5378787878787878,0.4378101492824847,-0.4985628939516759,1
60.14,0.5378787878787878,0.3612055639223326,-0.4646747146087331,1
60.191,0.5303030303030303,0.2920945721047328,-0.43189586279868,1
60.242,0.5340909090909092,0.2209431352378268,-0.4003875443807523,1
60.293,0.5189393939393938,0.1563306550665165,-0.370410002010662,1
60.345,0.5227272727272727,0.1239781686179701,-0.3422244487112578,1
60.396,0.5113636363636362,0.1492771229261499,-0.3160646795787674,1
60.446,0.5378787878787878,0.2044497902606011,-0.2921714193724325,1
60.497,0.553030303030303,0.2304006986434932,-0.270951190241107,1
60.548,0.553030303030303,0.2807059165125196,-0.252954942893925,1
60.599,0.5189393939393938,0.3362642108312667,-0.2383159785875057,1
60.649,0.5189393939393938,0.4020396832816756,-0.2271643358721577,1
60.699,0.553030303030303,0.4998632306729395,-0.2196238393722458,1
60.75,0.5265151515151514,0.5498556246692529,-0.2158260591273935,1
60.801,0.5303030303030303,0.5441822362534543,-0.2159026464650177,1
60.852,0.4924242424242424,0.5024074591439571,-0.2199811431559322,1
60.902,0.5492424242424243,0.4819365643238382,-0.2281881201423807,1
60.953,0.5416666666666667,0.4700254531480928,-0.2406580706126138,1
61.003,0.5492424242424243,0.4487595213099038,-0.257064621947054,1
61.054,0.5189393939393938,0.4333529750286959,-0.2757256638905918,1
61.105,0.5265151515151514,0.418315702296683,-0.2963658087557048,1
61.156,0.5265151515151514,0.4256811152106143,-0.3186949252444733,1
61.207,0.5303030303030303,0.4415953097644688,-0.3424102428179236,1
61.258,0.5454545454545454,0.4207113603026234,-0.3671507920154058,1
61.308,0.5189393939393938,0.3805426015434251,-0.3926138500676908,1
61.359,0.5568181818181819,0.3550705525652601,-0.4184500579334638,1
61.41,0.5227272727272727,0.3033668516838237,-0.4443341211233216,1
61.461,0.5151515151515151,0.2465084969080422,-0.469804526324213,1
61.512,0.5075757575757576,0.2380964861021713,-0.4941598352736127,1
61.563,0.5378787878787878,0.2492598264325443,-0.517065470415955,1
61.613,0.5227272727272727,0.2399992438056843,-0.5381690958919276,1
61.664,0.5303030303030303,0.2653610800528837,-0.5570618093761603,1
61.715,0.5265151515151514,0.3217841473906935,-0.5733873798674356,1
61.766,0.5643939393939394,0.3270538847859735,-0.5867787335614072,1
61.818,0.5606060606060606,0.4186875113854781,-0.5987073606646767,1
61.869,0.5303030303030303,0.5646282815693723,-0.6098980416079913,1
61.919,0.5378787878787878,0.634137285843763,-0.6204119946829953,1
61.971,0.5303030303030303,0.7025626309584856,-0.6303060182200171,1
62.022,0.5303030303030303,0.7599032050187284,-0.6396303608981704,1
62.072,0.5227272727272727,0.7877799358025837,-0.648462383471649,1
62.123,0.5227272727272727,0.6656470011044674,-0.6568595586753503,1
62.174,0.5454545454545454,0.5195700278128008,-0.6649007178562694,1
62.225,0.5113636363636362,0.3333482194139,-0.6726492528512913,1
62.275,0.5454545454545454,0.192903450268681,-0.6801768418766436,1
62.326,0.5113636363636362,0.0983440147393042,-0.6875405145450351,1
62.377,0.5378787878787878,0.0563159209952429,-0.6948346411864537,1
62.428,0.5189393939393938,0.0490071742741518,-0.702796401023968,1
62.478,0.5227272727272727,0.0784445857427922,-0.7118309421100282,1
62.529,0.5151515151515151,0.1041862217173325,-0.7217831036703686,1
62.58,0.5378787878787878,0.1313581592168546,-0.7324954462958226,1
62.631,0.553030303030303,0.2237944971197577,-0.7438362791694926,1
62.682,0.5113636363636362,0.317773166496603,-0.755695660553956,1
62.732,0.5568181818181819,0.4176986828830317,-0.7679625377598696,1
62.783,0.5757575757575757,0.5157154775854367,-0.7805235794629881,1
62.834,0.5568181818181819,0.6466403503869684,-0.7932926789854575,1
62.885,0.5227272727272727,0.7611251979405957,-0.8062080573621446,1
62.936,0.5492424242424243,0.867872208399213,-0.8191879240287958,1
62.987,0.5606060606060606,0.8727279457458279,-0.8321751344343018,1
63.038,0.5416666666666667,0.714764970575961,-0.8451409363569193,1
63.089,0.553030303030303,0.5261156294793846,-0.8578589216597141,1
63.14,0.5340909090909092,0.3959137547548901,-0.8698395972176047,1
63.191,0.5113636363636362,0.2959486107711807,-0.8812229474529694,1
63.241,0.4924242424242424,0.2211945552321048,-0.8922641141608643,1
63.292,0.5378787878787878,0.2336731794854365,-0.902707015900906,1
63.343,0.5227272727272727,0.1736137351091243,-0.9123015433635168,1
63.395,0.5416666666666667,0.1401654076114801,-0.9208098545836598,1
63.446,0.553030303030303,0.1461659119544689,-0.9280387132630108,1
63.496,0.5265151515151514,0.1636456913075663,-0.9337181238461852,1
63.547,0.5075757575757576,0.1826467928884079,-0.937684098483734,1
63.598,0.5189393939393938,0.2079372330266731,-0.9397496719127996,1
63.648,0.553030303030303,0.2420793471923422,-0.9397452496686124,1
63.699,0.5227272727272727,0.312554358946863,-0.937484621697554,1
63.75,0.5606060606060606,0.3657228582500714,-0.9328544452633354,1
63.801,0.5189393939393938,0.4553789008313438,-0.9257184002162586,1
63.851,0.5416666666666667,0.5336116145819159,-0.9159575372047132,1
63.902,0.553030303030303,0.5622501009044362,-0.9034635261568652,1
63.953,0.5378787878787878,0.5854630698612053,-0.888140760649998,1
64.004,0.5303030303030303,0.6145844138900232,-0.8698791230418903,1
64.054,0.5227272727272727,0.6074805268132175,-0.8486562539535489,1
64.104,0.5378787878787878,0.5751599888036888,-0.8248337555755658,1
64.155,0.5151515151515151,0.4965299157194343,-0.7979249393660135,1
64.206,0.5454545454545454,0.4230024281042318,-0.7663180364841571,1
64.256,0.5151515151515151,0.3425907810200975,-0.7305528436005473,1
64.307,0.5227272727272727,0.2734258150658263,-0.6911831232479091,1
64.358,0.4962121212121211,0.2073893499492516,-0.6487197337225905,1
64.409,0.5454545454545454,0.1736856776807471,-0.6037090685207831,1
64.46,0.5378787878787878,0.1849531747867973,-0.556654616902303,1
64.511,0.5416666666666667,0.2136645370697914,-0.5080776775818032,1
64.562,0.5416666666666667,0.2489669486972843,-0.4584847698423231,1
64.613,0.5037878787878787,0.3201803717910592,-0.408416377269468,1
64.664,0.5189393939393938,0.3916841778858139,-0.3583610233149321,1
64.716,0.4962121212121211,0.4262845606892407,-0.3088360604340403,1
64.766,0.5265151515151514,0.4815223873564072,-0.2603528085038915,1
64.817,0.5454545454545454,0.5435033127335704,-0.2133777195139572,1
64.868,0.5454545454545454,0.5044817673409074,-0.1684150533489492,1
64.919,0.5303030303030303,0.4547937880602924,-0.1259562541132095,1
64.969,0.5378787878787878,0.4255979977021047,-0.086495712224464,1
65.02,0.5416666666666667,0.388906794172467,-0.0496852030693903,1
65.071,0.5340909090909092,0.3636153252885652,-0.0152817766522983,1
65.122,0.5378787878787878,0.378256320271594,0.0165014279578668,1
65.173,0.5037878787878787,0.3905030313959399,0.0454307700897209,1
65.224,0.5492424242424243,0.376690033272395,0.0713547377593797,1
65.274,0.5303030303030303,0.333100015206982,0.0941003707215202,1
65.325,0.5189393939393938,0.3258728435205971,0.1134904640384801,1
65.376,0.5265151515151514,0.3769817912102767,0.1293841812687097,1
65.426,0.5568181818181819,0.459766306308994,0.1416458440568448,1
65.477,0.571969696969697,0.3979766303551442,0.1501871241500438,1
65.528,0.5340909090909092,0.3509008887983782,0.1548806700181457,1
65.578,0.5303030303030303,0.4142469283864479,0.1556179236112269,1
65.629,0.5151515151515151,0.4687992601557847,0.1523333112133134,1
65.679,0.5454545454545454,0.4971966074503945,0.1442640218967925,1
65.73,0.5189393939393938,0.5048687528960005,0.1312570499139336,1
65.781,0.5416666666666667,0.4970990237389471,0.113793683307668,1
65.832,0.5378787878787878,0.5064797073349891,0.0926247635829553,1
65.882,0.5454545454545454,0.5599525334776891,0.068074343018992,1
65.933,0.5189393939393938,0.542512369762285,0.0404789061781047,1
65.984,0.4848484848484848,0.3374118128723322,0.01018719790031,1
66.034,0.5303030303030303,0.1497878229516983,-0.0224091813140021,1
66.085,0.5454545454545454,0.1168725198037156,-0.0569986894895304,1
66.136,0.5416666666666667,0.1432556212177798,-0.0931726908423731,1
66.187,0.5037878787878787,0.1544946558450872,-0.1305365589255238,1
66.237,0.5227272727272727,0.1989829891802231,-0.1686859520202097,1
66.288,0.5303030303030303,0.2484784597267096,-0.2072364432645361,1
66.339,0.553030303030303,0.3226080485123288,-0.245733746856632,1
66.39,0.5113636363636362,0.4097677982666036,-0.2837375863315206,1
66.44,0.5303030303030303,0.4790938617792248,-0.3207979699524599,1
66.491,0.5265151515151514,0.4756218068210223,-0.3564516804509785,1
66.542,0.5151515151515151,0.4694713050039651,-0.390226578535441,1
66.592,0.5492424242424243,0.4417572181579936,-0.4216686880137632,1
66.643,0.5151515151515151,0.4128411667502311,-0.4505373682163811,1
66.694,0.553030303030303,0.3975278077219989,-0.4765679050327569,1
66.746,0.5113636363636362,0.389919054245544,-0.4997687855488517,1
66.797,0.5189393939393938,0.3698752505739954,-0.5217649222277807,1
66.848,0.5340909090909092,0.3726372295048767,-0.5424105847611504,1
66.899,0.5303030303030303,0.3901177796140795,-0.5615791770980181,1
66.95,0.5568181818181819,0.394866893970585,-0.5791811477570874,1
67.0,0.5606060606060606,0.4182868956404591,-0.5951007568540854,1
67.051,0.5340909090909092,0.4522570652249984,-0.6092745155379848,1
67.101,0.4924242424242424,0.4110089744580755,-0.6216468126088714,1
67.152,0.5340909090909092,0.3665817444528012,-0.6321350499146878,1
67.203,0.5189393939393938,0.4157883236738154,-0.6406909700244274,1
67.253,0.5416666666666667,0.4680704098673867,-0.6473033600767271,1
67.304,0.5151515151515151,0.4516695084022068,-0.6519688848613354,1
67.354,0.5416666666666667,0.4565824141452484,-0.6546356528781931,1
67.405,0.5189393939393938,0.487533703306158,-0.655346827039504,1
67.455,0.5340909090909092,0.5009743635625491,-0.6541257447285671,1
67.506,0.5378787878787878,0.4848232028191501,-0.651008850008381,1
67.556,0.5492424242424243,0.4743086571060815,-0.6460116275675525,1
67.607,0.5378787878787878,0.4439778348501042,-0.6392226201257876,1
67.657,0.5,0.373130841061652,-0.6297259369572172,1
67.708,0.5227272727272727,0.2797602850108332,-0.6178183845954242,1
67.758,0.4772727272727273,0.2604128067929264,-0.6037727035672731,1
67.81,0.5075757575757576,0.2382413079218601,-0.5879281752604797,1
67.86,0.5303030303030303,0.2198092624704042,-0.5705795285387216,1
67.911,0.5643939393939394,0.2190923151706456,-0.5520288596979823,1
67.961,0.5227272727272727,0.2381099258435671,-0.5326133724560729,1
68.012,0.5454545454545454,0.2660943615345681,-0.5126642547748224,1
68.063,0.5454545454545454,0.2945091546058935,-0.492523184095432,1
68.113,0.5151515151515151,0.3225732330287475,-0.4725059437572509,1
68.164,0.5265151515151514,0.3571832752130797,-0.4529506495046154,1
68.215,0.5037878787878787,0.3882470200073255,-0.4342000237418491,1
68.266,0.5378787878787878,0.425240149464621,-0.4157599276803716,1
68.317,0.5303030303030303,0.4678532267151191,-0.3975168433027241,1
68.369,0.553030303030303,0.4863339325961011,-0.3796078302754986,1
68.419,0.5303030303030303,0.479364243438599,-0.36216828223171,1
68.47,0.5378787878787878,0.562062260621947,-0.3453355198398546,1
68.521,0.5378787878787878,0.6002235387077859,-0.3292285459625366,1
68.573,0.5227272727272727,0.559489664951647,-0.3139725477718786,1
68.623,0.5416666666666667,0.5463951018898061,-0.2996875361464601,1
68.674,0.5454545454545454,0.5917884556040466,-0.2864847526022465,1
68.725,0.5265151515151514,0.5247663229895599,-0.2744930522089723,1
68.776,0.4924242424242424,0.3251713439431454,-0.2638152938928031,1
68.826,0.5265151515151514,0.1658829890655505,-0.254557803878066,1
68.877,0.5378787878787878,0.1074023969921322,-0.2474305890214778,1
68.928,0.553030303030303,0.0905705261841351,-0.2425851460668435,1
68.979,0.5340909090909092,0.1178198717946905,-0.2399612167581701,1
69.031,0.5265151515151514,0.1275635341499499,-0.2395000287347075,1
69.081,0.5151515151515151,0.1379191016059533,-0.2411478057909071,1
69.133,0.5303030303030303,0.2336701492454734,-0.2448595512569507,1
69.184,0.5303030303030303,0.4221730711654097,-0.2505787779834802,1
69.235,0.5303030303030303,0.6061551952009132,-0.2579163143255623,1
69.285,0.553030303030303,0.6881194093321485,-0.2663991804840453,1
69.336,0.5113636363636362,0.6632445589702426,-0.2758313506690824,1
69.387,0.5340909090909092,0.6217244589583448,-0.2860456963683875,1
69.438,0.5416666666666667,0.5413090790934348,-0.2968784079761071,1
69.489,0.5303030303030303,0.5060014680112151,-0.3081279822455234,1
69.539,0.5416666666666667,0.4455534170316908,-0.3196218132074788,1
69.59,0.5151515151515151,0.4043805028102796,-0.3311671484411302,1
69.641,0.5416666666666667,0.3777006986943111,-0.3425876360867765,1
69.692,0.5189393939393938,0.3134110230144674,-0.3536880891584761,1
69.742,0.5416666666666667,0.2708962426511001,-0.3642960478263135,1
69.793,0.5227272727272727,0.2570096936019153,-0.37419891162933,1
69.844,0.5454545454545454,0.2261896550171057,-0.3832129773841326,1
69.895,0.5303030303030303,0.213720837679556,-0.3911274478865603,1
69.947,0.4886363636363635,0.2011034408890163,-0.3973431773359843,1
69.997,0.5606060606060606,0.2144239510512268,-0.401703333610107,1
70.048,0.5075757575757576,0.2600327128340631,-0.4040997917607032,1
70.099,0.5492424242424243,0.3107692992970533,-0.4044186449304363,1
70.149,0.5454545454545454,0.3786100483312159,-0.4025554108164582,1
70.2,0.5643939393939394,0.4460712671966295,-0.3983804905125105,1
70.251,0.5189393939393938,0.5006921319404484,-0.3929723583389317,1
70.302,0.5340909090909092,0.5823791992827324,-0.3864193943262601,1
70.353,0.5492424242424243,0.6396649764226462,-0.3788213402073412,1
70.405,0.5037878787878787,0.6953191311969187,-0.3702563257156326,1
70.456,0.5492424242424243,0.722071228869434,-0.3608366321342098,1
70.507,0.5340909090909092,0.6792875346292759,-0.3506544690094366,1
70.558,0.5606060606060606,0.5919269174089207,-0.339811867327306,1
70.608,0.5037878787878787,0.4840749710730889,-0.3284057682784747,1
70.659,0.5189393939393938,0.3560128675878707,-0.3165496722097427,1
70.71,0.5303030303030303,0.2334466278366603,-0.3043537111426158,1
70.76,0.5303030303030303,0.1730764082301627,-0.2919315708949686,1
70.811,0.5,0.1381636957394344,-0.279397809922536,1
70.861,0.4962121212121211,0.1070540340465324,-0.2668620780930895,1
70.912,0.5189393939393938,0.0963031113129816,-0.2544532655890497,1
70.964,0.5227272727272727,0.1247206506535906,-0.2422940319016624,1
71.015,0.5492424242424243,0.178320507613214,-0.230510771525918,1
71.065,0.5075757575757576,0.2136059395963267,-0.2192247891614669,1
71.116,0.5643939393939394,0.293771261607582,-0.2085731129783337,1
71.167,0.5189393939393938,0.3988143583029137,-0.1986376511884935,1
71.219,0.553030303030303,0.5206436789836257,-0.1895438269523954,1
71.27,0.5492424242424243,0.6199767490168838,-0.1814533633477757,1
71.321,0.5189393939393938,0.6775934089364134,-0.1745108805351019,1
71.372,0.5340909090909092,0.6685027553211385,-0.1688830124680236,1
71.423,0.5075757575757576,0.6425161428701769,-0.1647313569757726,1
71.474,0.5378787878787878,0.5763343638597029,-0.161485307630206,1
71.525,0.5151515151515151,0.4943402431158291,-0.1589546132249935,1
71.576,0.5265151515151514,0.3828628873060885,-0.1571230609653509,1
71.627,0.5606060606060606,0.2608270499841692,-0.1559750030604272,1
71.678,0.5151515151515151,0.171781828674302,-0.1554873534764524,1
71.729,0.5340909090909092,0.1293013981640915,-0.1556223814692408,1
71.78,0.5075757575757576,0.1311480465581548,-0.1563559997025052,1
71.831,0.5568181818181819,0.1686214664386979,-0.1576512669612699,1
71.881,0.5113636363636362,0.2078182295128583,-0.1594666470463837,1
71.932,0.5416666666666667,0.2616892765462683,-0.1617637219023819,1
71.983,0.5075757575757576,0.3589474578850797,-0.1644864000856674,1
72.033,0.5454545454545454,0.440268454984784,-0.1675794108042407,1
72.084,0.5454545454545454,0.5137751312051649,-0.1709952746065641,1
72.135,0.5189393939393938,0.5789950745521616,-0.1746585186767499,1
72.185,0.5416666666666667,0.6006611137131898,-0.17851022709426,1
72.236,0.5,0.5913292039918271,-0.1824686505623134,1
72.287,0.5492424242424243,0.5571083610233962,-0.1864456539682426,1
72.337,0.5075757575757576,0.4964387996007119,-0.190369082205664,1
72.389,0.5378787878787878,0.3945004183820165,-0.1949007910908555,1
72.44,0.5454545454545454,0.3180904647472574,-0.1998559993538542,1
72.491,0.553030303030303,0.2524675692335753,-0.2049618462730045,1
72.543,0.5340909090909092,0.1893293643256097,-0.2105001801194723,1
72.594,0.5037878787878787,0.1656585165748433,-0.2163549589268463,1
72.645,0.5454545454545454,0.1753858933192372,-0.2223818841249962,1
72.696,0.5075757575757576,0.1860998201850011,-0.2284429099903215,1
72.746,0.5227272727272727,0.2147837529121559,-0.2344062436457537,1
72.797,0.5037878787878787,0.2670513133774126,-0.2401327624180527,1
72.849,0.5568181818181819,0.303154544374089,-0.2455060088404486,1
72.9,0.553030303030303,0.3627673461094655,-0.2504292454367438,1
72.951,0.5340909090909092,0.4527695311447015,-0.2548090423613849,1
73.002,0.5492424242424243,0.5299894935115144,-0.2585282276127043,1
73.053,0.5416666666666667,0.6516277708361724,-0.2614924098941684,1
73.104,0.5454545454545454,0.7415194243685983,-0.263613450755777,1
73.155,0.5113636363636362,0.7833189503203623,-0.2647958819513518,1
73.207,0.5454545454545454,0.676344073624759,-0.2649794661907547,1
73.258,0.5378787878787878,0.5367401847929208,-0.2640819540018078,1
73.309,0.5113636363636362,0.3911338357033761,-0.2620565080757431,1
73.359,0.5492424242424243,0.2593113476054383,-0.258844999198585,1
73.41,0.5189393939393938,0.1761728082506722,-0.2543838138329204,1
73.461,0.5227272727272727,0.1526473694647587,-0.248644750604746,1
73.512,0.4924242424242424,0.1109454426272198,-0.2413863482400562,1
73.563,0.5303030303030303,0.1041450663777358,-0.2312150706082785,1
73.613,0.5265151515151514,0.1329585546764849,-0.2184195751223798,1
73.664,0.5606060606060606,0.1705752089642968,-0.2033021726563832,1
73.715,0.5378787878787878,0.2250454222515544,-0.1861604759017283,1
73.765,0.5378787878787878,0.2993263369691961,-0.1673653441907729,1
73.816,0.5416666666666667,0.4156016277739989,-0.1472153513932292,1
73.867,0.5113636363636362,0.5689462356560241,-0.1260042864596204,1
73.918,0.5454545454545454,0.6456857346517184,-0.1040321381309317,1
73.969,0.5227272727272727,0.666683510636171,-0.081553977132549,1
74.02,0.553030303030303,0.635929539966621,-0.0588401954500401,1
74.07,0.5227272727272727,0.5936874592337756,-0.0361697015887934,1
74.12,0.5340909090909092,0.5254033618000679,-0.013779309428314,1
74.171,0.5151515151515151,0.4270062639631058,0.008078339231345,1
74.223,0.5303030303030303,0.3282211185034356,0.0291444027996661,1
74.274,0.5568181818181819,0.273866419145961,0.0492049577017317,1
74.325,0.5303030303030303,0.1956385585170013,0.0680124896813847,1
74.376,0.5340909090909092,0.1634628505813706,0.0853667390964583,1
74.426,0.5,0.1482539099047184,0.1010521250446037,1
74.477,0.5227272727272727,0.1569155070399039,0.1148782456870161,1
74.527,0.5037878787878787,0.2027513301861669,0.1266184205971172,1
74.578,0.5416666666666667,0.2474946236036838,0.1360802698815861,1
74.629,0.5606060606060606,0.3077678932763577,0.1430759866912003,1
74.679,0.5606060606060606,0.4045033899602325,0.1474275170779755,1
74.73,0.5265151515151514,0.5020551116211761,0.1489402873272407,1
74.781,0.553030303030303,0.6227049530847235,0.1474693149367101,1
74.831,0.5643939393939394,0.6856536823799333,0.1428542961439123,1
74.882,0.553030303030303,0.7013297072275835,0.1349418368288617,1
74.933,0.5416666666666667,0.7188402743916575,0.1235700263517523,1
74.984,0.4962121212121211,0.709920409076999,0.1093881020390852,1
75.034,0.5113636363636362,0.6499579364641273,0.0920813615307132,1
75.085,0.5151515151515151,0.536038623192892,0.0718130559565164,1
75.136,0.5378787878787878,0.3867405737468795,0.0487997224210978,1
75.186,0.5454545454545454,0.2934103930817485,0.023245047820839,1
75.237,0.5606060606060606,0.2392570201184652,-0.0046385342960881,1
75.288,0.5227272727272727,0.2035680948372555,-0.034636429837024,1
75.338,0.5189393939393938,0.1481867559716896,-0.0665107537372309,1
75.389,0.5303030303030303,0.1228966807340876,-0.1000394163560844,1
75.44,0.5075757575757576,0.1596540289059206,-0.1349781142571258,1
75.49,0.5492424242424243,0.2411889900945169,-0.1710507988848713,1
75.541,0.5189393939393938,0.2858072483634169,-0.2079908602437452,1
75.591,0.5454545454545454,0.3593188556795792,-0.2455303781514324,1
75.642,0.5113636363636362,0.4461711262027342,-0.2833871173484286,1
75.693,0.5378787878787878,0.5322998727103736,-0.3212700959234369,1
75.745,0.5378787878787878,0.5830372110072773,-0.3588961131719732,1
75.796,0.5340909090909092,0.5591840069492647,-0.3959498128424208,1
75.847,0.5378787878787878,0.4389241112474816,-0.4321226582123922,1
75.898,0.5,0.3318882022017131,-0.4670753851223677,1
75.949,0.5340909090909092,0.2839975270061803,-0.5012116191466649,1
75.999,0.5454545454545454,0.2574622642652449,-0.5342920602745256,1
76.05,0.5416666666666667,0.2573671310542786,-0.5657536037964297,1
76.101,0.5151515151515151,0.2776984662024767,-0.5953046824210722,1
76.152,0.5340909090909092,0.2871354343161453,-0.6241339076491186,1
76.202,0.5265151515151514,0.3368763022899496,-0.652076489783955,1
76.253,0.553030303030303,0.4252295626464583,-0.6789627626576722,1
76.304,0.571969696969697,0.5105445915053287,-0.7046364530521227,1
76.354,0.553030303030303,0.5769399022140242,-0.7289198366508032,1
76.405,0.5378787878787878,0.6714359553872326,-0.7517167810880176,1
76.456,0.5037878787878787,0.6831061354350526,-0.7729109293880501,1
76.507,0.5189393939393938,0.6312778331787715,-0.7923770866222775,1
76.557,0.5075757575757576,0.5830363453153703,-0.8100437957833473,1
76.608,0.5606060606060606,0.5206014705410842,-0.8258221102471579,1
76.659,0.5265151515151514,0.4364390398521115,-0.8396547126116944,1
76.71,0.5151515151515151,0.3643375042590319,-0.8514948212279463,1
76.762,0.5492424242424243,0.2882560046262625,-0.8604505789965691,1
76.812,0.5340909090909092,0.2270443997104839,-0.8663392158510383,1
76.863,0.5378787878787878,0.2005091217581667,-0.8694060900994172,1
76.914,0.5037878787878787,0.2106942035021068,-0.8698698473648696,1
76.965,0.5227272727272727,0.2131898012448705,-0.8679596858814853,1
77.016,0.5113636363636362,0.2231659429798526,-0.8639254362975872,1
77.066,0.5378787878787878,0.2618000156946158,-0.8580299910322382,1
77.117,0.5151515151515151,0.3038756180968134,-0.8504993295283991,1
77.168,0.5303030303030303,0.2977063841654961,-0.8415811326454921,1
77.219,0.5643939393939394,0.3331045880385153,-0.8315368688817679,1
77.27,0.5189393939393938,0.3779047469724234,-0.8206085700183188,1
77.321,0.5606060606060606,0.4019578550543693,-0.8090320700563018,1
77.373,0.5340909090909092,0.4129838271681757,-0.7970973356072091,1
77.424,0.5227272727272727,0.4709906135070228,-0.7850566271443149,1
77.475,0.5113636363636362,0.5195911498365299,-0.7731782382636254,1
77.526,0.5454545454545454,0.5302934762541627,-0.7617116636538845,1
77.577,0.5568181818181819,0.5337396709375006,-0.7507873510539338,1
77.627,0.5227272727272727,0.538315448571947,-0.7400913550798083,1
77.678,0.5416666666666667,0.50200083623082,-0.7297621212113963,1
77.729,0.5151515151515151,0.4375507980598611,-0.7199510045010649,1
77.78,0.5378787878787878,0.3562475211005401,-0.7116750686743163,1
77.831,0.5037878787878787,0.2938566595860288,-0.705277741527893,1
77.881,0.5303030303030303,0.2708740343368001,-0.7006508326674177,1
77.933,0.5075757575757576,0.2749661848681426,-0.6976921213645788,1
77.984,0.5151515151515151,0.2719524915731258,-0.6962873910295753,1
78.035,0.5416666666666667,0.2530524048750111,-0.6963638434274739,1
78.086,0.5492424242424243,0.2402215334257763,-0.6978481198864244,1
78.137,0.5416666666666667,0.2576763724960696,-0.700653489217046,1
78.187,0.4886363636363635,0.3038432356803993,-0.7047089409033556,1
78.239,0.5113636363636362,0.3066542756766183,-0.7099782966769408,1
78.29,0.5151515151515151,0.3370195486828368,-0.7164313993894202,1
78.341,0.553030303030303,0.3683650697397068,-0.7240150455776666,1
78.392,0.5454545454545454,0.3710457070852974,-0.7326803684813394,1
78.443,0.5227272727272727,0.3831991638016545,-0.7424344640152594,1
78.493,0.5340909090909092,0.3873610707548417,-0.7532692673327248,1
78.544,0.5151515151515151,0.4211325721848954,-0.7642878087005331,1
78.595,0.5454545454545454,0.4047105515245394,-0.7740387366749182,1
78.645,0.5075757575757576,0.2613569476463908,-0.782102223939213,1
78.696,0.5340909090909092,0.2127400438170688,-0.7885443134945658,1
78.747,0.5378787878787878,0.230543874533971,-0.7934343529252108,1
78.798,0.5378787878787878,0.1978919371247513,-0.7968472240219475,1
78.849,0.5340909090909092,0.2088248877991417,-0.798830373445687,1
78.9,0.5227272727272727,0.2428735958976128,-0.7994200065039156,1
78.951,0.5189393939393938,0.2720045215639718,-0.7986564352894232,1
79.002,0.5151515151515151,0.2356871612938507,-0.7965541846050677,1
79.053,0.5643939393939394,0.1896357363862416,-0.7930997623402947,1
79.103,0.5227272727272727,0.1959454588013153,-0.7882846288075955,1
79.154,0.5454545454545454,0.3424256261295083,-0.7821023110590664,1
79.205,0.5378787878787878,0.6393353531427426,-0.7745210542266663,1
79.255,0.5340909090909092,0.9648689817543924,-0.7654841617901651,1
79.306,0.5378787878787878,0.9618524191119676,-0.7549347743454589,1
79.357,0.5454545454545454,0.6068160123604223,-0.7438494329271905,1
79.408,0.5265151515151514,0.1765365494484257,-0.7327295165670225,1
79.458,0.5037878787878787,0.0298008092727064,-0.7217725708756768,1
79.509,0.5340909090909092,0.0363451589081782,-0.7111195631390141,1
79.561,0.5227272727272727,0.070045024282248,-0.7009912325656276,1
79.612,0.5303030303030303,0.0676022251371478,-0.6921258826253152,1
79.662,0.5303030303030303,0.0730204193150402,-0.6875052961514769,1
79.713,0.5227272727272727,0.1217487570928395,-0.6865851996275736,1
79.764,0.5075757575757576,0.1679233014814368,-0.688849710207615,1
79.815,0.5189393939393938,0.169652529696438,-0.693743624686046,1
79.866,0.5643939393939394,0.2193479837373402,-0.7008847002757392,1
79.917,0.5189393939393938,0.2652792839935624,-0.709841669462538,1
79.968,0.5606060606060606,0.304505599520584,-0.7201990542755075,1
80.02,0.5151515151515151,0.3500477281738666,-0.7315926361268223,1
80.071,0.5227272727272727,0.3702178364496541,-0.7436762314557832,1
80.122,0.5340909090909092,0.3845999983025245,-0.7561320473722399,1
80.173,0.5416666666666667,0.4008810186474693,-0.7686706816565927,1
80.224,0.5378787878787878,0.4059762960784396,-0.7810311227597913,1
80.274,0.5037878787878787,0.3866358931426977,-0.7929807498033339,1
80.325,0.5303030303030303,0.3398432217224523,-0.8043153325792691,1
80.376,0.4962121212121211,0.2922936202225867,-0.8137330385388795,1
80.426,0.5340909090909092,0.2384747435057113,-0.8164783974491883,1
80.477,0.5265151515151514,0.1952332399545001,-0.8129605461091756,1
80.527,0.5416666666666667,0.1654937901614723,-0.8035866082037291,1
80.578,0.5265151515151514,0.1608318199216501,-0.788764859203676,1
80.629,0.5492424242424243,0.1575817813372343,-0.7688784357249716,1
80.68,0.5378787878787878,0.1661724833057393,-0.744256118539522,1
80.73,0.5189393939393938,0.1850491234377021,-0.7152389214433146,1
80.782,0.5265151515151514,0.2205679171526523,-0.6821690100182747,1
80.833,0.4962121212121211,0.2506394529203321,-0.6453634109914566,1
80.884,0.553030303030303,0.2961231979941439,-0.6050670345715843,1
80.935,0.5454545454545454,0.3478767593449937,-0.5615455539579877,1
80.986,0.5492424242424243,0.4101217360754928,-0.5151272434599219,1
81.037,0.5265151515151514,0.4367342530613593,-0.4660103515211058,1
81.087,0.5416666666666667,0.455395973564035,-0.4143962530153087,1
81.138,0.5606060606060606,0.4495473916215673,-0.3605220566579161,1
81.189,0.5075757575757576,0.4271470250622208,-0.3057986375417436,1
81.24,0.5340909090909092,0.3693341293242154,-0.2511629878302326,1
81.291,0.5113636363636362,0.3083745934483788,-0.197074108259553,1
81.342,0.553030303030303,0.2715659347533863,-0.1440078251650716,1
81.393,0.5378787878787878,0.2475543454106277,-0.0924584111852633,1
81.444,0.5340909090909092,0.1967183793122868,-0.04292379978608,1
81.495,0.5189393939393938,0.1730976140196672,0.0041549260178985,1
81.546,0.5189393939393938,0.1681429196137737,0.0483123490210766,1
81.597,0.5227272727272727,0.1810142434890018,0.0891037535157353,1
81.648,0.5075757575757576,0.1808953005142098,0.126059542810129,1
81.699,0.5606060606060606,0.2084961235500537,0.1587279360269518,1
81.75,0.5454545454545454,0.2373459197346068,0.1867015561550586,1
81.801,0.5227272727272727,0.2611215794867402,0.2094958024693185,1
81.852,0.5378787878787878,0.2837428436431386,0.2266652233796495,1
81.902,0.5340909090909092,0.3016976081199675,0.2377918290418992,1
81.953,0.5454545454545454,0.2984013275972196,0.2424466035139305,1
82.004,0.5113636363636362,0.2895374254693398,0.2397279389450881,1
82.055,0.5037878787878787,0.2785687401595236,0.2286898237673389,1
82.105,0.5151515151515151,0.2591691449013035,0.209118184486917,1
82.156,0.5492424242424243,0.2428234177362169,0.1808326590485278,1
82.208,0.5037878787878787,0.2553141295733534,0.1443300509602934,1
82.258,0.5568181818181819,0.2395235855772952,0.1030891947647134,1
82.309,0.5378787878787878,0.2339221384752128,0.0576965316954281,1
82.361,0.5151515151515151,0.2577276624224092,0.008760991106715,1
82.412,0.5454545454545454,0.3017676155782846,-0.0431526784517437,1
82.463,0.5075757575757576,0.3089737059644538,-0.0973293657100313,1
82.513,0.5075757575757576,0.3145563514458245,-0.1530865811803798,1
82.564,0.5075757575757576,0.2865949320554556,-0.209715351603418,1
82.616,0.5416666666666667,0.2893968896970351,-0.2664860026835365,1
82.667,0.5303030303030303,0.3051303523263916,-0.322641985524605,1
82.717,0.5303030303030303,0.2792272369920334,-0.3774038722809334,1
82.768,0.5416666666666667,0.2186296307948624,-0.4299635734219147,1
82.819,0.5265151515151514,0.1724457303355777,-0.479490511296305,1
82.87,0.5303030303030303,0.1424230276687511,-0.5250772062284297,1
82.921,0.4696969696969697,0.1232371831356985,-0.565808127517966,1
82.972,0.5265151515151514,0.1170914931971621,-0.6008786368857546,1
83.024,0.5378787878787878,0.1493502024647183,-0.6342031458363862,1
83.075,0.5265151515151514,0.1787889130227166,-0.6657561471953375,1
83.125,0.5378787878787878,0.2172413144782726,-0.6955125383366365,1
83.176,0.5757575757575757,0.2911287284338642,-0.7234604228069548,1
83.227,0.571969696969697,0.3752210245591474,-0.749563982952899,1
83.278,0.5189393939393938,0.4028445837381885,-0.7738566557569679,1
83.328,0.5984848484848486,0.4749924017569636,-0.7963560236300962,1
83.379,0.5681818181818181,0.5204610420901007,-0.817080073531768,1
83.429,0.5416666666666667,0.5330568029088163,-0.836031156681684,1
83.48,0.5113636363636362,0.546710974611061,-0.8532763627716251,1
83.53,0.5454545454545454,0.5451157442324204,-0.8688883255860635,1
83.581,0.5151515151515151,0.501289127174348,-0.8828717004397313,1
83.632,0.5378787878787878,0.3419676370634408,-0.8953158459728423,1
83.682,0.5303030303030303,0.2159875771192184,-0.90650032042616,1
83.733,0.5227272727272727,0.1469979746741361,-0.9170279004212584,1
83.784,0.5340909090909092,0.1127613934186316,-0.9268343232858204,1
83.836,0.5151515151515151,0.0752096073123058,-0.9358415751191717,1
83.887,0.5416666666666667,0.0431994439698056,-0.9440501704084704,1
83.938,0.5265151515151514,0.0355401716796207,-0.9514452574947942,1
83.988,0.5416666666666667,0.0527822666905491,-0.9580127348455167,1
84.039,0.5151515151515151,0.0927343002525006,-0.9637238563224336,1
84.09,0.5037878787878787,0.1277219147508606,-0.9686418106018556,1
84.141,0.5340909090909092,0.1890034327002145,-0.9728076739041828,1
84.192,0.5681818181818181,0.3086839185124101,-0.9762887081076904,1
84.242,0.5492424242424243,0.5360905569801961,-0.979142764374234,1
84.293,0.5037878787878787,0.6646273762077797,-0.9814451903476308,1
84.343,0.5416666666666667,0.6577797074588048,-0.9833397676686796,1
84.394,0.5075757575757576,0.5342641000643975,-0.9849195251605938,1
84.445,0.5454545454545454,0.4479775653224567,-0.9864418269548514,1
84.497,0.5189393939393938,0.3146620834930055,-0.9887459208076634,1
84.548,0.5227272727272727,0.1965489255741565,-0.991788849468508,1
84.598,0.5454545454545454,0.1439067490681724,-0.9950310076673832,1
84.649,0.5303030303030303,0.1232412740939742,-0.9976135641595868,1
84.7,0.5340909090909092,0.0885599629310382,-0.9993343331245216,1
84.75,0.4886363636363635,0.0822456244716494,-0.9999999999999998,1
84.801,0.5416666666666667,0.1060350750144982,-0.9994340974575407,1
84.852,0.5303030303030303,0.1612358409799021,-0.997441162258841,1
84.903,0.5492424242424243,0.1858197791149314,-0.9939041183958196,1
84.953,0.5378787878787878,0.2443595888816551,-0.9886830445647464,1
85.004,0.5340909090909092,0.3577251818572147,-0.9816486931313206,1
85.055,0.5643939393939394,0.4364871795572789,-0.9726607965267192,1
85.106,0.5265151515151514,0.5235830919024916,-0.9616516916769802,1
85.158,0.5340909090909092,0.5881811757848397,-0.9485348658634596,1
85.208,0.5037878787878787,0.5395634804583542,-0.9332605601207752,1
85.259,0.5454545454545454,0.4389756503898339,-0.9157042776391916,1
85.309,0.5151515151515151,0.3677131036778794,-0.895847645068911,1
85.36,0.5227272727272727,0.270429672146867,-0.8736552264998503,1
85.411,0.5416666666666667,0.1536114135781893,-0.8472998230974187,1
85.463,0.5189393939393938,0.1115843732726982,-0.8167639499290911,1
85.514,0.5340909090909092,0.0722581633384298,-0.7825702736298767,1
85.564,0.5227272727272727,0.0478774815661258,-0.7451850342251785,1
85.615,0.5454545454545454,0.0557022236237174,-0.7050773163877713,1
85.666,0.4886363636363635,0.0872908508456474,-0.6627025102988358,1
85.717,0.5492424242424243,0.1037903234005861,-0.6185188507869264,1
85.768,0.5303030303030303,0.1180393224354612,-0.5729754261344027,1
85.818,0.553030303030303,0.200657978515751,-0.5265366736424479,1
85.869,0.5340909090909092,0.3753498193111719,-0.4796175705876058,1
85.92,0.5113636363636362,0.5292716491855,-0.4326465998355,1
85.971,0.5416666666666667,0.6342184915117931,-0.3860550888991314,1
86.022,0.5227272727272727,0.5925678556936662,-0.3402652187453032,1
86.073,0.5568181818181819,0.5089961225731495,-0.2956892133641027,1
86.123,0.5454545454545454,0.3717223582519009,-0.2527421413929906,1
86.174,0.5606060606060606,0.3197659723969442,-0.211846135027971,1
86.225,0.5113636363636362,0.2474812218879653,-0.173382120119101,1
86.276,0.5227272727272727,0.1811191737433001,-0.1375306863102463,1
86.326,0.5454545454545454,0.1614640005545167,-0.103936083681321,1
86.377,0.5378787878787878,0.1623321309325229,-0.0728269860226049,1
86.428,0.5454545454545454,0.175687193827456,-0.0443844283215999,1
86.48,0.5075757575757576,0.1872221273787387,-0.0187838283568884,1
86.53,0.5492424242424243,0.2004222085413693,0.0037732354089086,1
86.581,0.5151515151515151,0.2054429548372103,0.023116412270868,1
86.632,0.5113636363636362,0.2259811038820735,0.0390983945813387,1
86.682,0.5378787878787878,0.2383697345611794,0.0515722824256434,1
86.733,0.5492424242424243,0.2534603927671314,0.0604277197180747,1
86.784,0.5340909090909092,0.2815503820468493,0.0655599675818461,1
86.835,0.5189393939393938,0.2901686363659947,0.0665287769978637,1
86.886,0.4886363636363635,0.3095999617577054,0.0626325660641282,1
86.937,0.5037878787878787,0.310790435828317,0.0540019128906568,1
86.988,0.5454545454545454,0.2702617772997857,0.0407566367719343,1
87.039,0.5189393939393938,0.2383741389365786,0.0232116882799044,1
87.089,0.5303030303030303,0.2081665226878258,0.0023853961570581,1
87.14,0.5340909090909092,0.1501281681729626,-0.0214280950015082,1
87.191,0.5340909090909092,0.1111520455578178,-0.0478592369270058,1
87.242,0.5303030303030303,0.0859805424796175,-0.0765625599167192,1
87.293,0.5189393939393938,0.0906826454280748,-0.1071780496620178,1
87.344,0.553030303030303,0.1044774689317854,-0.1393349684602189,1
87.395,0.5189393939393938,0.127358399988742,-0.1726487149314652,1
87.445,0.5378787878787878,0.2033824411390734,-0.2067648088877329,1
87.496,0.5378787878787878,0.3093018246940356,-0.2412526855385746,1
87.547,0.5643939393939394,0.3917753654607657,-0.2756989238677185,1
87.598,0.5568181818181819,0.4807488929299395,-0.30967937946484,1
87.648,0.5568181818181819,0.5878705551236606,-0.3427899540364385,1
87.699,0.5681818181818181,0.7283913683675963,-0.3745612206903361,1
87.75,0.5227272727272727,0.7905410109393277,-0.4045370750966741,1
87.801,0.5340909090909092,0.7782118327455534,-0.4322136394544231,1
87.851,0.5113636363636362,0.5468742368099258,-0.4576803341925197,1
87.902,0.5303030303030303,0.2517985504259594,-0.4803711107379325,1
87.952,0.5189393939393938,0.0798991745726057,-0.4996612742192106,1
88.003,0.5151515151515151,0.0288853616252492,-0.5171308571259563,1
88.054,0.4924242424242424,0.0158049156118903,-0.5331360073053144,1
88.105,0.5340909090909092,0.0259183278898762,-0.5475387187229463,1
88.155,0.5606060606060606,0.0307307027273124,-0.5602762695087846,1
88.205,0.553030303030303,0.0430961531835065,-0.5712368974099493,1
88.256,0.5454545454545454,0.0777147636898837,-0.5803700769063003,1
88.307,0.4962121212121211,0.1294308149032519,-0.5876213109377104,1
88.358,0.5303030303030303,0.1732337291986997,-0.5929492243347843,1
88.409,0.5227272727272727,0.2519860530648745,-0.5963058387679332,1
88.459,0.553030303030303,0.3679052875204119,-0.597692095112931,1
88.51,0.5378787878787878,0.5111754223958849,-0.5971058460315388,1
88.561,0.5492424242424243,0.5864509250804198,-0.5945580660762506,1
88.612,0.5454545454545454,0.5487409272719719,-0.590086899121814,1
88.662,0.5340909090909092,0.4790969464428461,-0.5836985420908853,1
88.713,0.5227272727272727,0.4201116962629911,-0.5754604286388545,1
88.764,0.5,0.3409273926007253,-0.5654303432617418,1
88.815,0.5378787878787878,0.2481948114790175,-0.5536699208180977,1
88.866,0.5113636363636362,0.1874357433920147,-0.5397896503429203,1
88.916,0.5151515151515151,0.1655024959175033,-0.523102814449036,1
88.967,0.5113636363636362,0.1315922759220926,-0.5040035784238743,1
89.018,0.5113636363636362,0.1104200491671956,-0.4829205215377739,1
89.068,0.5227272727272727,0.0890934001895118,-0.4602388730614777,1
89.119,0.5303030303030303,0.0993045567043454,-0.4363610210200241,1
89.17,0.5416666666666667,0.1154072255347913,-0.4116839827337988,1
89.22,0.5340909090909092,0.1218712242161486,-0.3866134329429611,1
89.27,0.5378787878787878,0.140845309863606,-0.3615492032562697,1
89.322,0.4886363636363635,0.1773441524155543,-0.3368997827022548,1
89.372,0.5454545454545454,0.2067748181856618,-0.3130875422289669,1
89.424,0.5416666666666667,0.2550185854774739,-0.2901148568699687,1
89.474,0.5416666666666667,0.3152378618481309,-0.267530116417829,1
89.525,0.5454545454545454,0.3627926941677074,-0.2455070849912068,1
89.576,0.5568181818181819,0.4031234347023583,-0.2242374324744132,1
89.627,0.5454545454545454,0.4751079634406292,-0.2038804373901808,1
89.678,0.5151515151515151,0.5286324085365173,-0.1846170785356657,1
89.729,0.5416666666666667,0.5594456748202643,-0.1666057363332895,1
89.78,0.5340909090909092,0.5378975201757382,-0.1499888184506246,1
89.831,0.5643939393939394,0.5011820501541856,-0.1349105647678126,1
89.883,0.5227272727272727,0.3638533375195284,-0.1215243180445462,1
89.933,0.5189393939393938,0.248080751044655,-0.1099478893958236,1
89.984,0.5265151515151514,0.176493172855681,-0.100324611422919,1
90.036,0.5151515151515151,0.1192778807436656,-0.0927553502905254,1
90.086,0.5227272727272727,0.0952964994881483,-0.087365812720872,1
90.137,0.5,0.1012610004799594,-0.0842461737914943,1
90.189,0.5681818181818181,0.0994287260068116,-0.0834953755843876,1
90.24,0.5340909090909092,0.1036314192437976,-0.0856185022328506,1
90.29,0.5265151515151514,0.1226680621753006,-0.0906114867488607,1
90.341,0.5265151515151514,0.1715493670096751,-0.0984707399262392,1
90.392,0.5227272727272727,0.2070430290132247,-0.109192997641653,1
90.442,0.5378787878787878,0.2344829371619739,-0.1221590758502171,1
90.493,0.5454545454545454,0.2450529440543157,-0.1371694652542547,1
90.543,0.5492424242424243,0.2418092980769251,-0.1540941397590542,1
90.594,0.5113636363636362,0.2510495556696438,-0.1727809190194151,1
90.644,0.5303030303030303,0.231053757462847,-0.1930402503888273,1
90.695,0.5151515151515151,0.2861662943915826,-0.2147256491789622,1
90.745,0.5378787878787878,0.3608847898969983,-0.2376262306728849,1
90.796,0.5340909090909092,0.3902391752297516,-0.2615850461573017,1
90.846,0.5454545454545454,0.4239984248372121,-0.2863918518061807,1
90.897,0.5568181818181819,0.4546561453960069,-0.3118471463341961,1
90.947,0.5340909090909092,0.4763975764125676,-0.3377323341406568,1
90.997,0.5303030303030303,0.414948024900803,-0.3638315032488868,1
91.048,0.5340909090909092,0.3623637847478609,-0.3899096473668479,1
91.099,0.5265151515151514,0.2793251411378497,-0.4157344438265156,1
91.149,0.4772727272727273,0.1900986215081851,-0.4410544756445032,1
91.2,0.5227272727272727,0.1127573816380929,-0.4662215272244325,1
91.25,0.5227272727272727,0.0584285990240565,-0.4920394468524209,1
91.301,0.5454545454545454,0.0421267335883716,-0.5178570953917658,1
91.351,0.4962121212121211,0.0500315346341911,-0.542997139902949,1
91.402,0.5378787878787878,0.0511586051249876,-0.566903838438678,1
91.453,0.5340909090909092,0.0620227075356193,-0.589520346338064,1
91.503,0.5568181818181819,0.1268578971608376,-0.6114717525799458,1
91.554,0.571969696969697,0.2541512740792231,-0.6324567644823815,1
91.605,0.5454545454545454,0.3623038883242496,-0.6521598379661897,1
91.656,0.5303030303030303,0.5010578565443742,-0.6703791668879917,1
91.706,0.5227272727272727,0.6408100901694074,-0.686882034469348,1
91.757,0.5265151515151514,0.7082722034434201,-0.7014085392646212,1
91.808,0.5075757575757576,0.7096612155354374,-0.7138125177639751,1
91.859,0.553030303030303,0.6336517568687016,-0.7239011581445245,1
91.909,0.5568181818181819,0.4614121888420138,-0.7315288791223817,1
91.96,0.5454545454545454,0.2836335080576526,-0.7365099814764999,1
92.011,0.5416666666666667,0.1659067443930216,-0.7387725039216337,1
92.062,0.4962121212121211,0.0986134712543382,-0.7381677203024448,1
92.113,0.5151515151515151,0.074432167340047,-0.7330177598855667,1
92.163,0.5113636363636362,0.071915587252532,-0.7225650161133053,1
92.214,0.5454545454545454,0.074872229363934,-0.7072930093398755,1
92.264,0.5075757575757576,0.0786127642179522,-0.6876798217071527,1
92.315,0.5265151515151514,0.0728157793561918,-0.6642347117989509,1
92.365,0.5075757575757576,0.0978809726361084,-0.6374512238057417,1
92.416,0.5189393939393938,0.1188212592568712,-0.6077835061403407,1
92.466,0.5416666666666667,0.1499797967164275,-0.5756932022731853,1
92.517,0.5416666666666667,0.1886477057881756,-0.5416888697946374,1
92.568,0.5643939393939394,0.2403072438888285,-0.506196549746166,1
92.618,0.5189393939393938,0.2801955176158022,-0.4696940768760105,1
92.669,0.5378787878787878,0.301275111350328,-0.4326489681332264,1
92.719,0.5037878787878787,0.3841054104155613,-0.3955034558370838,1
92.77,0.5378787878787878,0.4668732426127748,-0.358732575278907,1
92.821,0.5378787878787878,0.4819088680877114,-0.3222594752008838,1
92.871,0.5606060606060606,0.4824252715838228,-0.2864596853579182,1
92.922,0.5303030303030303,0.4626594135234663,-0.2516507302817348,1
