Time,PPG,ECG,resp,afib
0.609,0.5187057633973711,0.2503266953608853,-0.9102848429349742,0
0.661,0.5176946410515673,0.2258106246939558,-0.9087714077145262,0
0.711,0.5187057633973711,0.2162621608421455,-0.906960005331382,0
0.762,0.5176946410515673,0.2792074039078372,-0.9048506357855416,0
0.813,0.5176946410515673,0.2932398119181528,-0.9024432990770046,0
0.863,0.5176946410515673,0.3373555241437919,-0.8997379952057715,0
0.914,0.5187057633973711,0.4007131433386814,-0.8967347241718421,0
0.965,0.5166835187057635,0.4306561539171822,-0.8934334859752163,0
1.016,0.5187057633973711,0.4490728698659531,-0.8898342806158942,0
1.067,0.5176946410515673,0.4566080305429354,-0.8859371080938758,0
1.118,0.5176946410515673,0.5421932634687837,-0.8817419684091611,0
1.169,0.5166835187057635,0.4841725408603205,-0.8772488615617501,0
1.22,0.519716885743175,0.4311641905864362,-0.8724577875516428,0
1.271,0.5187057633973711,0.3057886149387682,-0.8673687463788392,0
1.321,0.5176946410515673,0.2192871095311644,-0.8619817380433393,0
1.372,0.5176946410515673,0.1834497392666381,-0.8562967625451431,0
1.423,0.5187057633973711,0.1279126578695494,-0.8503138198842506,0
1.474,0.5176946410515673,0.0944699714699101,-0.8440329100606618,0
1.526,0.5166835187057635,0.1054801501537969,-0.8374540330743766,0
1.577,0.519716885743175,0.1058957117712484,-0.8305771889253951,0
1.629,0.5247724974721941,0.1174720492304539,-0.8234023776137175,0
1.68,0.5945399393326593,0.1985136853811338,-0.8159295991393433,0
1.731,1.0,0.268679214135779,-0.808158853502273,0
1.783,1.0,0.3220352368846073,-0.8000901407025063,0
1.834,1.0,0.4428480971360263,-0.7917234607400433,0
1.885,1.0,0.5869433634115423,-0.7830588136149028,0
1.935,0.936299292214358,0.7469693554133839,-0.7680844748402982,0
1.986,0.544994944388271,0.8416780947101066,-0.7528884196508141,0
2.036,0.435793731041456,0.9012733138115891,-0.7375953998198562,0
2.087,0.506572295247725,0.7806454857057391,-0.722336053799606,0
2.137,0.5551061678463094,0.5628750334871999,-0.7072377603178408,0
2.188,0.5439838220424672,0.3053884155892439,-0.6924321549189116,0
2.239,0.4903943377148635,0.129795294110457,-0.6780310143947768,0
2.291,0.4064711830131446,0.0808940829826513,-0.6641520022161689,0
2.342,0.1638018200202224,0.0855009273246014,-0.650902005588442,0
2.393,0.0,0.0648102985852996,-0.6383937344795592,0
2.445,0.0,0.0415255362621105,-0.6267516082988696,0
2.496,0.0,0.050737890404545,-0.6157778962020608,0
2.548,0.1274014155712841,0.0887838554538819,-0.6063300349954688,0
2.599,0.6319514661274015,0.1053870041364615,-0.5994504156436877,0
2.65,0.6643073811931244,0.1350608704582206,-0.5949363082302614,0
2.702,0.5419615773508595,0.1876847980509088,-0.5925939041897321,0
2.753,0.480283114256825,0.2514295983661967,-0.5922383163076397,0
2.804,0.4974721941354904,0.3132503601751976,-0.5936935787205224,0
2.855,0.5176946410515673,0.3374893657456308,-0.596813218501747,0
2.906,0.5278058645096056,0.4081108530123412,-0.6014348267427994,0
2.957,0.5106167846309404,0.4854466095271995,-0.6073845192287846,0
3.007,0.5176946410515673,0.5519822634254612,-0.6145223653571341,0
3.058,0.5176946410515673,0.5683286072791075,-0.6227379274621094,0
3.11,0.512639029322548,0.5855571485501955,-0.6319048318960911,0
3.161,0.5187057633973711,0.5848508174150842,-0.6418852297050774,0
3.212,0.5187057633973711,0.4868326238358397,-0.6517690876163129,0
3.262,0.519716885743175,0.3368738579090364,-0.6613613409524042,0
3.313,0.5146612740141557,0.2451014238470549,-0.6703636479171882,0
3.364,0.5207280080889788,0.1942207104872568,-0.6785800740623267,0
3.415,0.5116279069767442,0.1407571257094795,-0.6856419635610307,0
3.465,0.5187057633973711,0.1012284833493135,-0.6909517305779529,0
3.516,0.5156723963599595,0.0982911143215264,-0.6943796324970957,0
3.567,0.5166835187057635,0.1260670229555027,-0.6957974898386776,0
3.619,0.512639029322548,0.1431437164755027,-0.6950826333790607,0
3.671,0.5278058645096056,0.201181198853709,-0.6921375102848788,0
3.721,0.7532861476238625,0.2900265170971492,-0.6868280389165824,0
3.811,1.0,0.340272101412549,-0.679015582007902,0
3.862,1.0,0.416546675110236,-0.6685888200551655,0
3.913,1.0,0.553926812430442,-0.6554167642120501,0
3.964,1.0,0.6166826175499387,-0.6393733239284534,0
4.015,0.5500505561172903,0.6622778063956978,-0.6203306528979777,0
4.066,0.3761375126390293,0.6970562154997924,-0.5993886755082045,0
4.117,0.4266936299292214,0.74662578795677,-0.5766795647740197,0
4.169,0.4812942366026289,0.6917527691446679,-0.5523051105758234,0
4.221,0.4792719919110212,0.5190200669181709,-0.5263971847294442,0
4.272,0.4580384226491406,0.2845808535107768,-0.4990829679362467,0
4.323,0.4671385237613751,0.1373932723312397,-0.4704871511554593,0
4.375,0.4691607684529828,0.1149220083941054,-0.4407553608785604,0
4.427,0.4378159757330637,0.1302363188649805,-0.4100451315105551,0
4.478,0.1274014155712841,0.1051841634311461,-0.3785232897877022,0
4.528,0.0,0.0951868615777248,-0.3463578780985126,0
4.58,0.0,0.1095479352087261,-0.3137096983751464,0
4.63,0.0,0.1512697330891053,-0.2807504221991528,0
4.681,0.3963599595551061,0.1722140366263926,-0.2476759826491215,0
4.731,0.6582406471183013,0.1953545660547198,-0.2146824587317175,0
4.782,0.5955510616784632,0.2303716504879635,-0.1819735919226572,0
4.833,0.4994944388270981,0.2835088028191113,-0.149751639763531,0
4.883,0.480283114256825,0.315071677169062,-0.1182329690817798,0
4.934,0.5035389282103134,0.3047447965134423,-0.0876565120992975,0
4.986,0.5176946410515673,0.3446517336784832,-0.0581553184539009,0
5.037,0.5176946410515673,0.4108236862220613,-0.0298698015101368,0
5.088,0.5136501516683519,0.4321893931300953,-0.0030813266461477,0
5.139,0.512639029322548,0.4703828728250352,0.0215422641282243,0
5.191,0.5136501516683519,0.531882392372455,0.0444659109734297,0
5.242,0.5146612740141557,0.5414744429681974,0.0667234771179523,0
5.293,0.5146612740141557,0.4920310906805671,0.0883180693513994,0
5.345,0.5146612740141557,0.4294937826301258,0.1092593241999986,0
5.396,0.5146612740141557,0.3548124147391928,0.1295634079265988,0
5.446,0.5146612740141557,0.2970656205184739,0.1492475017492831,0
5.497,0.5156723963599595,0.28002337515447,0.1683670125782612,0
5.548,0.5156723963599595,0.2644849726492192,0.1869634335085856,0
5.598,0.5156723963599595,0.2489863638283289,0.2050709127074239,0
5.649,0.5146612740141557,0.2398743423877879,0.2227262958188711,0
5.7,0.5166835187057635,0.2373443963792091,0.2400168795491122,0
5.751,0.5146612740141557,0.2343033663255863,0.2570038683136102,0
5.803,0.5166835187057635,0.2287245007437802,0.2737423174071338,0
5.854,0.5156723963599595,0.2370706965456163,0.2902826405969976,0
5.905,0.5187057633973711,0.2717836072991342,0.3067467277857902,0
5.956,0.519716885743175,0.3171780900599134,0.3231841443224144,0
6.007,0.5207280080889788,0.3304141739385102,0.3397102752083589,0
6.058,0.5207280080889788,0.3534879309178431,0.3562774060016136,0
6.109,0.5915065722952477,0.3684687909191664,0.3724682513585282,0
6.159,1.0,0.412919363119015,0.3882819439853588,0
6.21,1.0,0.4835745892147359,0.4036950956595593,0
6.26,1.0,0.5945604682451258,0.418715459343804,0
6.311,1.0,0.6618363058149932,0.4333605152847517,0
6.362,0.8887765419615774,0.6805776563445348,0.4476151569173918,0
6.413,0.1435793731041456,0.6440002001335305,0.4614831516067523,0
6.465,0.0,0.5313387363048026,0.4749757926295173,0
6.516,0.0,0.3527225666893167,0.4881065595005949,0
6.567,0.0,0.2444710636399842,0.5008697192059768,0
6.618,0.0,0.164945617471198,0.5132893953300615,0
6.669,0.519716885743175,0.0995423632764183,0.5253851871068997,0
6.721,0.6693629929221436,0.0383490695598568,0.5371574812416231,0
6.773,0.5631951466127402,0.0192494861194745,0.5486186526728729,0
6.825,0.4863498483316481,0.03703245271964,0.5597932815659763,0
6.875,0.4893832153690596,0.0822668154965489,0.5707155002622932,0
6.927,0.5106167846309404,0.1024492979778756,0.5813902095858028,0
6.978,0.5207280080889788,0.1456973248702771,0.5918479367643212,0
7.03,0.5166835187057635,0.2964669884121377,0.602123246420307,0
7.081,0.5136501516683519,0.5331605122760341,0.6127951804963705,0
7.132,0.5116279069767442,0.7072946130945639,0.6238249673510072,0
7.184,0.5156723963599595,0.7607890812539992,0.6351143863449096,0
7.235,0.5166835187057635,0.6856277504181584,0.6465950292138283,0
7.286,0.5156723963599595,0.5485169102528353,0.658192674771203,0
7.337,0.5176946410515673,0.381219611278023,0.6698585184027488,0
7.388,0.5156723963599595,0.2942684782667045,0.6815252305033033,0
7.438,0.5166835187057635,0.2400462826670452,0.6931463898323798,0
7.489,0.5156723963599595,0.2187240129052665,0.7046643643038197,0
7.54,0.5176946410515673,0.2038165177632814,0.7160635525126611,0
7.59,0.5156723963599595,0.2286535080086166,0.7271838322029525,0
7.641,0.5166835187057635,0.2501967833761652,0.737822093917158,0
7.692,0.5166835187057635,0.2851399305282674,0.7479189993294231,0
7.742,0.5156723963599595,0.3065601105873807,0.757407337112256,0
7.793,0.5166835187057635,0.3066773067828661,0.7662499630196971,0
7.845,0.5176946410515673,0.2742960387296289,0.7743827256684295,0
7.895,0.5136501516683519,0.2349246468839375,0.7817646374901202,0
7.946,0.5187057633973711,0.265472028981998,0.7883468868638559,0
7.998,0.5166835187057635,0.2492820284925367,0.7940983112023181,0
8.049,0.5156723963599595,0.2263066652625137,0.7989923908625891,0
8.101,0.5166835187057635,0.235141956656302,0.8029963188713887,0
8.151,0.5399393326592518,0.2572236572102742,0.8060949841834346,0
8.202,1.0,0.2622379603510745,0.8082520774181106,0
8.254,1.0,0.3319313750377877,0.8094675856655149,0
8.305,1.0,0.4326039102631506,0.8097344471831844,0
8.356,1.0,0.444198481274726,0.8090500015460371,0
8.408,1.0,0.5478477742577773,0.8074170588870233,0
8.459,0.7987866531850354,0.6544985990693352,0.8048361200679,0
8.511,0.3498483316481294,0.6781620920954192,0.8013320455725936,0
8.562,0.2912032355915065,0.6476447236467422,0.7969096933568887,0
8.615,0.3862487360970678,0.6855640687613326,0.7915913287831442,0
8.666,0.4823053589484328,0.588596004664545,0.7854041052297025,0
8.717,0.5267947421638018,0.3389601741752341,0.7783743076824803,0
8.767,0.3771486349848332,0.1343701041090551,0.7705391106233654,0
8.818,0.0,0.0445616350432737,0.7619457504165812,0
8.869,0.0,0.0325577044090171,0.7526350802525386,0
8.919,0.0,0.0543910148182082,0.7426530864092129,0
8.97,0.0,0.0684810927487787,0.7320685291154803,0
9.02,0.4236602628918099,0.0845096633961346,0.7209367808171949,0
9.072,0.6622851365015167,0.1242325364869965,0.7093241034561828,0
9.123,0.5874620829120324,0.2172395117433551,0.6973068208566024,0
9.175,0.4964610717896865,0.2652412040342431,0.6849673406657875,0
9.226,0.4853387259858443,0.3345970491279272,0.672379825891317,0
9.278,0.5055611729019212,0.4106735674205555,0.6596283087451398,0
9.33,0.5187057633973711,0.4342564555398604,0.6468099098715823,0
9.381,0.5166835187057635,0.4452339209653939,0.6340202158637984,0
9.433,0.5136501516683519,0.4231228514810526,0.6213592146323181,0
9.484,0.5136501516683519,0.4041392916136226,0.6089141412403216,0
9.535,0.5136501516683519,0.3794606952495062,0.5966910707007376,0
9.587,0.5146612740141557,0.3456353887434562,0.5847131351641615,0
9.638,0.5136501516683519,0.3368013302658904,0.5731445805231021,0
9.69,0.5146612740141557,0.3373021582632322,0.5614884487123768,0
9.741,0.5146612740141557,0.3474861084770402,0.5497580184302988,0
9.793,0.5166835187057635,0.3328588327788693,0.5380005075800893,0
9.844,0.5156723963599595,0.3314822764861926,0.5262507597035371,0
9.895,0.5146612740141557,0.3029344420528388,0.5145508159094359,0
9.946,0.5146612740141557,0.2728722110767816,0.5029246526847082,0
9.996,0.5166835187057635,0.2989216956792123,0.4914183223762052,0
10.047,0.5166835187057635,0.3426540173889454,0.4800654275719171,0
10.098,0.5166835187057635,0.346569533987748,0.4689032364413075,0
10.148,0.5166835187057635,0.3493683990436674,0.4579521141819502,0
10.198,0.5156723963599595,0.364208032576761,0.4472398834047784,0
10.249,0.5166835187057635,0.3541299163300092,0.436796935315821,0
10.299,0.5166835187057635,0.3084214307957196,0.4266413264592659,0
10.35,0.5166835187057635,0.3036002253227399,0.4167994383828031,0
10.401,0.5156723963599595,0.2877449178233215,0.4072783133630708,0
10.452,0.5166835187057635,0.2419409243797177,0.3980990261395649,0
10.504,0.5156723963599595,0.2013191697101261,0.3892713555777995,0
10.555,0.5176946410515673,0.2067372697981027,0.3808120422489738,0
10.606,0.5217391304347826,0.2396048071597992,0.372726540099765,0
10.658,0.570273003033367,0.2333024868987307,0.3650191816858785,0
10.709,0.8200202224469161,0.3290879357325567,0.3577018777406766,0
10.759,1.0,0.4730792520494872,0.3507728410378603,0
10.811,1.0,0.5401537275231871,0.3442385696550447,0
10.861,1.0,0.6441881046607559,0.3380980164437956,0
10.912,0.782608695652174,0.6786535712657017,0.3323435070531899,0
10.963,0.4398382204246714,0.6600348088115067,0.3269767309236715,0
11.015,0.2922143579373104,0.577808878617604,0.321984591799104,0
11.066,0.153690596562184,0.5684919429464786,0.3173646808129513,0
11.118,0.0,0.4101522552104115,0.3131008911390127,0
11.168,0.0,0.1827462243172004,0.3091854012550041,0
11.219,0.1132457027300303,0.0545565131107597,0.3056039321495043,0
11.27,0.5581395348837209,0.0135326750556546,0.3023412678690409,0
11.322,0.62891809908999,0.0167340019983264,0.2993847703047043,0
11.374,0.5328614762386249,0.048971664107584,0.2967083881982897,0
11.424,0.4833164812942366,0.0742407656581986,0.2942908897579492,0
11.475,0.4924165824064712,0.0916176820014659,0.2921092677859036,0
11.525,0.5106167846309404,0.1743058208229438,0.2899939258602577,0
11.576,0.5156723963599595,0.3236063617939599,0.2879401048531975,0
11.626,0.5106167846309404,0.4161710996595167,0.2859547876047354,0
11.677,0.5085945399393327,0.4875216428161971,0.2840308167977525,0
11.727,0.5085945399393327,0.5872248356103081,0.2821593112651563,0
11.779,0.5106167846309404,0.6190747791779616,0.2803322571806568,0
11.83,0.512639029322548,0.5837914561766272,0.2785271558503726,0
11.883,0.5146612740141557,0.5307063380204399,0.2767332015991965,0
11.934,0.5166835187057635,0.4157450669900208,0.2749305178644592,0
11.985,0.5166835187057635,0.3126139273879785,0.2730889089951236,0
12.037,0.5176946410515673,0.2516007930129488,0.2711875769295595,0
12.088,0.5146612740141557,0.2180347681347852,0.2692055437183738,0
12.138,0.5156723963599595,0.179894091177148,0.2672414574595878,0
12.189,0.5146612740141557,0.1902616558737143,0.265438643030853,0
12.24,0.5146612740141557,0.1889839333470125,0.2638067369703496,0
12.291,0.5156723963599595,0.1894280920613966,0.2623597485709803,0
12.342,0.5176946410515673,0.1753196600937094,0.2611128304676682,0
12.394,0.5176946410515673,0.1786974434184466,0.2600738999816394,0
12.445,0.5176946410515673,0.2339037446451814,0.2592536345073739,0
12.496,0.5166835187057635,0.2785370844772696,0.2586628518937048,0
12.548,0.5166835187057635,0.3408920540997796,0.2583057039760836,0
12.599,0.5267947421638018,0.4320674083571978,0.2581903063059054,0
12.65,0.7735085945399394,0.5058522265217492,0.2583179792161765,0
12.702,1.0,0.5921372367273526,0.2586939975063858,0
12.753,1.0,0.6187991696913484,0.2593208023028677,0
12.803,1.0,0.6722407510429329,0.2602002208883942,0
12.854,1.0,0.6871561677539432,0.261332906651319,0
12.905,0.5358948432760364,0.6285941534048826,0.2627177074847135,0
12.955,0.0,0.541652587375783,0.264350427037376,0
13.006,0.0,0.4351167638268911,0.2662254725015951,0
13.056,0.0,0.2703422565223174,0.2683383726046151,0
13.107,0.0,0.1543226485974392,0.2706815269801605,0
13.158,0.1061678463094034,0.0986854441625287,0.2732453695051338,0
13.209,0.6036400404448938,0.0694530527527325,0.2760176047522322,0
13.26,0.6531850353892821,0.0448463750468259,0.2789913380559174,0
13.311,0.5348837209302326,0.0371628229379972,0.282152043697407,0
13.361,0.480283114256825,0.0598741507251462,0.2854867643794518,0
13.413,0.4903943377148635,0.1039224935195292,0.2894340923524545,0
13.463,0.5146612740141557,0.1449293573710446,0.2939298761097317,0
13.515,0.5187057633973711,0.2068021952033976,0.2988474519403752,0
13.567,0.5176946410515673,0.3637772153133218,0.3040816866819158,0
13.617,0.5106167846309404,0.5750142932728967,0.3095286919623476,0
13.669,0.512639029322548,0.7290868296609531,0.3150700592052722,0
13.72,0.5146612740141557,0.7504403183028999,0.3205986502072711,0
13.771,0.5146612740141557,0.7345057387244482,0.3260126901541778,0
13.823,0.5156723963599595,0.6992252762201278,0.3312122777984787,0
13.874,0.5146612740141557,0.5511145240442076,0.3360991495979903,0
13.926,0.5156723963599595,0.3888573063205481,0.3405804053997805,0
13.977,0.5156723963599595,0.2662336335655224,0.3445729347721173,0
14.029,0.5156723963599595,0.1823401651336622,0.3479856996351884,0
14.08,0.5176946410515673,0.0944041707993951,0.3507225574986887,0
14.131,0.5156723963599595,0.057839704657469,0.3528969313193202,0
14.181,0.5156723963599595,0.053421902604603,0.3544562195088598,0
14.232,0.5156723963599595,0.0696832771525751,0.3553519017053541,0
14.283,0.5166835187057635,0.0986530916532557,0.3555548947291997,0
14.334,0.5166835187057635,0.1438510453404324,0.3550348996161276,0
14.384,0.5187057633973711,0.2078827798604476,0.3537537705311191,0
14.435,0.5166835187057635,0.2430446958650123,0.3516992600301005,0
14.486,0.5217391304347826,0.3190878595425788,0.3488439365599656,0
14.536,0.577350859453994,0.4431715256136137,0.3451821011793288,0
14.587,1.0,0.5289402377004782,0.3407026733829101,0
14.637,1.0,0.6512168963865729,0.3353988237691938,0
14.688,1.0,0.7708942572514834,0.3292656786110508,0
14.739,0.9929221435793733,0.8239611438383565,0.3223090764937093,0
14.789,0.506572295247725,0.7127514653992628,0.3145465918160623,0
14.84,0.3225480283114257,0.5521074085393354,0.305973434664033,0
14.892,0.2871587462082912,0.3426232417964573,0.2966045748221586,0
14.943,0.0,0.1676905663631676,0.2864546583607326,0
14.994,0.0,0.1115547732735719,0.2755509300529941,0
15.045,0.0151668351870576,0.1049389481014645,0.2639188336061269,0
15.096,0.5035389282103134,0.0629576857038765,0.2515899502216656,0
15.147,0.6400404448938322,0.0562150380893182,0.2386024076342743,0
15.198,0.5530839231547018,0.0689541612179699,0.2249865027486022,0
15.25,0.4944388270980789,0.0996892825549521,0.2107984469009807,0
15.302,0.4924165824064712,0.1329634091732223,0.1960928202391729,0
15.352,0.5146612740141557,0.18720785259511,0.1809151543267024,0
15.404,0.5146612740141557,0.2474624226202496,0.1654137326591125,0
15.455,0.5146612740141557,0.3225562920086985,0.1497928979349931,0
15.505,0.5166835187057635,0.3928257473551921,0.1340635815547368,0
15.556,0.512639029322548,0.4398680321871249,0.118234379887451,0
15.607,0.5156723963599595,0.5049270077818911,0.1023469648108366,0
15.657,0.5136501516683519,0.5381851003579984,0.0864337051151258,0
15.708,0.5156723963599595,0.5347139746534268,0.0705181733506714,0
15.758,0.5146612740141557,0.5228482213014379,0.0546630697462375,0
15.809,0.519716885743175,0.517464257047166,0.0389069816105445,0
15.86,0.512639029322548,0.4855996479321093,0.0233211627221265,0
15.911,0.5176946410515673,0.4080895581110659,0.0079588061092941,0
15.962,0.512639029322548,0.3059379200427286,-0.0070961151204202,0
16.013,0.5166835187057635,0.2360862461608678,-0.0223308662901748,0
16.066,0.5146612740141557,0.2038700004909422,-0.0378040551128262,0
16.117,0.5176946410515673,0.1672441316744795,-0.0535328840640498,0
16.168,0.5187057633973711,0.136379127592489,-0.0695627890417458,0
16.219,0.5146612740141557,0.1213192028150109,-0.0859102116614947,0
16.27,0.519716885743175,0.1459417931458085,-0.1025876662221463,0
16.321,0.5146612740141557,0.1762416880772974,-0.1195875647654212,0
16.372,0.5187057633973711,0.2197169907090018,-0.136970149782726,0
16.423,0.5146612740141557,0.2907788805983081,-0.1547335015321607,0
16.473,0.5278058645096056,0.3201336908202699,-0.1728763310210692,0
16.524,0.5884732052578362,0.3571216870851744,-0.1914237169967951,0
16.576,0.7451971688574318,0.4350656771052696,-0.2103924736276747,0
16.627,1.0,0.4833266571486824,-0.2298023181560029,0
16.678,1.0,0.5710030572596808,-0.2496101355656084,0
16.729,1.0,0.6580060780305869,-0.2698499346294145,0
16.78,0.7067745197168858,0.737370165875922,-0.2905124292111818,0
16.83,0.3447927199191102,0.7059943008920435,-0.3115844451338543,0
16.881,0.0131445904954499,0.5472922188993977,-0.3350261516630699,0
16.932,0.0,0.2895591116070508,-0.3605184807240302,0
16.982,0.0,0.1105203445639045,-0.3876028667754025,0
17.033,0.1334681496461071,0.0697198611667041,-0.4159139640795437,0
17.083,0.5824064711830131,0.0701827966176003,-0.4450235102820299,0
17.134,0.6359959555106168,0.0518006338338995,-0.4745964628321262,0
17.184,0.5328614762386249,0.0592817634232541,-0.5042444952299683,0
17.235,0.4833164812942366,0.0951420583681894,-0.5336550192714209,0
17.285,0.4914054600606674,0.1564218136626829,-0.5624700789577681,0
17.336,0.5116279069767442,0.2050480544435745,-0.5904074565860233,0
17.387,0.5166835187057635,0.2833583671280688,-0.61718619955007,0
17.437,0.5156723963599595,0.3582077856651497,-0.6425056938371052,0
17.488,0.5116279069767442,0.4077599857484524,-0.6660964593526513,0
17.539,0.5136501516683519,0.460179996968063,-0.6877043176114626,0
17.592,0.5116279069767442,0.4192276321127269,-0.7071177592936733,0
17.642,0.5146612740141557,0.3973873379849264,-0.7227920938892811,0
17.693,0.5146612740141557,0.3893049190231276,-0.7341832331174654,0
17.745,0.5156723963599595,0.3475339015112558,-0.7414720034163539,0
17.796,0.5176946410515673,0.3242622068309324,-0.7448503150656819,0
17.847,0.5146612740141557,0.3527522093957367,-0.7445149184947781,0
17.897,0.5166835187057635,0.4078133103691687,-0.7406537510692968,0
17.949,0.5146612740141557,0.3598981410790963,-0.7334579851561931,0
18.0,0.5187057633973711,0.330402400865711,-0.723217535994362,0
18.051,0.5166835187057635,0.300956890838708,-0.7103483309973575,0
18.102,0.519716885743175,0.253969024829699,-0.6950934900287549,0
18.154,0.5166835187057635,0.2653742268009106,-0.6776817882239266,0
18.205,0.5156723963599595,0.2738927338115453,-0.6583719209766974,0
18.255,0.5176946410515673,0.2574899298458311,-0.6374110412296496,0
18.306,0.5176946410515673,0.2352187875946617,-0.6150416962369682,0
18.356,0.5156723963599595,0.2209943083777861,-0.591514846465055,0
18.407,0.5166835187057635,0.2299981417799119,-0.5670757740713264,0
18.457,0.5176946410515673,0.2267951044273407,-0.5419781744254166,0
18.508,0.5166835187057635,0.2359986869916471,-0.5164603255481688,0
18.558,0.5176946410515673,0.2688865124736624,-0.4907904257188786,0
18.609,0.5166835187057635,0.3311818171315117,-0.4652191440864601,0
18.66,0.5187057633973711,0.4011587699778717,-0.4400055630120463,0
18.711,0.519716885743175,0.4592774271997153,-0.4154090732269218,0
18.762,0.571284125379171,0.4645951313563643,-0.3915578522565257,0
18.813,1.0,0.5290360056621177,-0.368868082439546,0
18.865,0.9989888776541962,0.5911460111370115,-0.3476021938067031,0
18.917,1.0,0.6919996632060796,-0.328055448817343,0
18.968,1.0,0.7257596831187034,-0.3104516866671907,0
19.02,0.3902932254802831,0.6251591123686906,-0.2950705136943841,0
19.071,0.102123356926188,0.5005850079280506,-0.2822054585445677,0
19.122,0.1587462082912032,0.342899324187537,-0.2721013845401827,0
19.174,0.0,0.1912771700471776,-0.2656345344858375,0
19.225,0.0414560161779575,0.1199410781767144,-0.2631175417977722,0
19.277,0.4368048533872599,0.0886704122245815,-0.2646938577294311,0
19.328,0.596562184024267,0.072517416763369,-0.270479243976151,0
19.379,0.5540950455005056,0.0485723132799194,-0.2805978788037109,0
19.43,0.4974721941354904,0.0495182512720007,-0.2951832514239902,0
19.481,0.4954499494438827,0.0784341494702823,-0.3120069018396185,0
19.532,0.5055611729019212,0.1368993599132851,-0.3306593993981923,0
19.582,0.5187057633973711,0.1792884270434075,-0.3508646074359278,0
19.633,0.5156723963599595,0.2653873276909303,-0.372269621814034,0
19.683,0.5166835187057635,0.421913246856686,-0.394567112473082,0
19.734,0.5116279069767442,0.5827771152219167,-0.4173924973658178,0
19.785,0.5166835187057635,0.6423756094429671,-0.4404198353907462,0
19.836,0.5136501516683519,0.6465981041531222,-0.4632659334585449,0
19.886,0.5156723963599595,0.5798934691699231,-0.4855919370951957,0
19.937,0.5166835187057635,0.4898154484581666,-0.5069834598157328,0
19.988,0.5187057633973711,0.3895999576777458,-0.5270623650595567,0
20.051,0.5136501516683519,0.3046261122490596,-0.5454216031239818,0
20.102,0.5166835187057635,0.2165862819924829,-0.5616630551241104,0
20.153,0.5166835187057635,0.1789952433741737,-0.5753353090457707,0
20.204,0.519716885743175,0.1336180339085417,-0.5858356005753387,0
20.255,0.5146612740141557,0.1183035029346198,-0.5943522947911712,0
20.306,0.5176946410515673,0.1492151026426922,-0.6014994350743339,0
20.356,0.5136501516683519,0.2124348551825725,-0.6073032875929729,0
20.407,0.5176946410515673,0.2480392887297975,-0.6117684262793011,0
20.459,0.5166835187057635,0.2972171841947663,-0.61491997227931,0
20.51,0.5187057633973711,0.4111464218367209,-0.6167947123706843,0
20.561,0.512639029322548,0.5247994042311098,-0.6174162501783576,0
20.613,0.5156723963599595,0.592226207193306,-0.6168375643986748,0
20.664,0.5176946410515673,0.5787725834503047,-0.6150874572115541,0
20.714,0.5166835187057635,0.4856064891142168,-0.6122182798496201,0
20.765,0.519716885743175,0.3989249768125108,-0.6082871457919483,0
20.815,0.5156723963599595,0.3323409338683901,-0.6033509833279134,0
20.866,0.519716885743175,0.2884230670271047,-0.5974775289208645,0
20.917,0.5156723963599595,0.2373954326803178,-0.590722483023058,0
20.967,0.5187057633973711,0.2262976929061547,-0.5831713770264644,0
21.018,0.5156723963599595,0.2099858159146975,-0.5748934533915779,0
21.068,0.5187057633973711,0.2287723972856381,-0.5659822782743531,0
21.119,0.5146612740141557,0.2544512705475723,-0.5565324658400816,0
21.17,0.5187057633973711,0.2742841214447355,-0.5466409082200137,0
21.22,0.5156723963599595,0.2681645616499865,-0.5363979476537255,0
21.272,0.5156723963599595,0.2851260470851202,-0.5259182500762534,0
21.323,0.5146612740141557,0.2879489895778725,-0.5153200137124643,0
21.376,0.5166835187057635,0.3060022339256671,-0.5044771359413631,0
21.428,0.519716885743175,0.3264137088801279,-0.4931516787123462,0
21.479,0.5166835187057635,0.3424755560945386,-0.4816287918505608,0
21.529,0.5187057633973711,0.3574808410586148,-0.4701681917646814,0
21.58,0.5156723963599595,0.356126910326654,-0.4590536753776493,0
21.632,0.519716885743175,0.3561459487039261,-0.448554795354761,0
21.683,0.5176946410515673,0.3633386868693896,-0.4389398138206013,0
21.735,0.5176946410515673,0.3401401522543189,-0.4304731616754205,0
21.786,0.5207280080889788,0.3359321180327586,-0.4226972473664228,0
21.837,0.5156723963599595,0.3248093303577684,-0.4154965070434548,0
21.889,0.519716885743175,0.3246312099294188,-0.4089684262075539,0
21.939,0.5166835187057635,0.3083654654052693,-0.4031602401595504,0
21.99,0.519716885743175,0.2989878422294997,-0.3981738619692374,0
22.042,0.5156723963599595,0.2945159066832697,-0.3940778860420293,0
22.093,0.5187057633973711,0.2977845909639166,-0.3909210010603137,0
22.145,0.5176946410515673,0.3062849930070772,-0.3887572031401793,0
22.196,0.5176946410515673,0.3227793643217397,-0.3876205826746877,0
22.247,0.5166835187057635,0.3267721319034941,-0.3875436043569973,0
22.298,0.5156723963599595,0.3404127295294462,-0.3885471534855926,0
22.348,0.519716885743175,0.3357723888784787,-0.3906681081871774,0
22.399,0.5156723963599595,0.3354010301603714,-0.3939103292502455,0
22.45,0.5187057633973711,0.3320933410749966,-0.3982713871197576,0
22.501,0.5166835187057635,0.3371783006624372,-0.4037584156996034,0
22.551,0.5187057633973711,0.3329337540327156,-0.4103534492654099,0
22.603,0.5166835187057635,0.3309453013391037,-0.4180252986156689,0
22.654,0.519716885743175,0.3290394326111056,-0.4267649203613761,0
22.706,0.5176946410515673,0.3305474031475215,-0.4384243538374079,0
22.757,0.5176946410515673,0.3237270735762803,-0.4529579212892527,0
22.809,0.5156723963599595,0.3326025918727817,-0.4700748835972972,0
22.86,0.5156723963599595,0.3303645977070494,-0.4892487400993754,0
22.911,0.519716885743175,0.3324610654283799,-0.5101418616458016,0
22.961,0.5166835187057635,0.3323120968234859,-0.5322749081956715,0
23.012,0.5187057633973711,0.3361615467189728,-0.5551949313526592,0
23.062,0.5166835187057635,0.3316659110550461,-0.5784974546164618,0
23.114,0.519716885743175,0.3357136922118943,-0.6017968764006434,0
23.165,0.5146612740141557,0.3208972259410156,-0.6247518568980603,0
23.218,0.519716885743175,0.3234770130474569,-0.6469577581713035,0
23.269,0.5156723963599595,0.3267340873545761,-0.6681057877717602,0
23.32,0.5166835187057635,0.3228191017045256,-0.6878189076844015,0
23.371,0.519716885743175,0.3227981873035922,-0.7057735203512066,0
23.422,0.5156723963599595,0.3302257089557179,-0.7216649031280225,0
23.473,0.5176946410515673,0.3249486250350013,-0.7338987020624843,0
23.524,0.5176946410515673,0.3272474107499807,-0.7412968712999791,0
23.576,0.519716885743175,0.3268954331629854,-0.7440954633417138,0
23.626,0.5156723963599595,0.3286977091822686,-0.742507900791597,0
23.677,0.519716885743175,0.3242998414426504,-0.7367762304579334,0
23.728,0.5156723963599595,0.3338994912320297,-0.7270810572439974,0
23.778,0.5187057633973711,0.3235131298582108,-0.7136642696301698,0
23.829,0.5187057633973711,0.3286388496328494,-0.6967235736687729,0
23.88,0.5176946410515673,0.3311355877027465,-0.676467134642498,0
23.93,0.5176946410515673,0.3316592278114351,-0.6530538138795259,0
23.982,0.5207280080889788,0.32112073936047,-0.6271425888031914,0
24.033,0.5187057633973711,0.3218617025516773,-0.5993648687746376,0
24.085,0.5146612740141557,0.3250788478186626,-0.57002993670515,0
24.135,0.5176946410515673,0.3253216349252996,-0.5394852461188167,0
24.188,0.5166835187057635,0.3164851881907577,-0.5080036430018959,0
24.24,0.519716885743175,0.3206083004464699,-0.4759189863543382,0
24.291,0.5176946410515673,0.3274539248100005,-0.4435315599827656,0
24.342,0.5176946410515673,0.3293773828859352,-0.4111646900787387,0
24.393,0.5166835187057635,0.3224820747401454,-0.3791001982060638,0
24.445,0.5156723963599595,0.3226588223467009,-0.3477047948309153,0
24.496,0.519716885743175,0.3091376914987029,-0.3172411009164535,0
24.548,0.5166835187057635,0.3086453745754823,-0.2880599811985191,0
24.599,0.5176946410515673,0.3200541319060051,-0.2604278887323323,0
24.65,0.5156723963599595,0.3389977681124507,-0.2346501528573248,0
24.701,0.5207280080889788,0.334469277353022,-0.2110453411550732,0
24.753,0.5176946410515673,0.3502260600710714,-0.1899120613933227,0
24.804,0.5217391304347826,0.3584502901576223,-0.1715322212503878,0
24.855,0.5156723963599595,0.352211589212307,-0.1562192594530855,0
24.907,0.5176946410515673,0.3409247564229886,-0.144280270293895,0
24.958,0.519716885743175,0.3147024691784627,-0.1359222239580937,0
25.011,0.5176946410515673,0.2944459984948085,-0.1315191143986511,0
25.062,0.5207280080889788,0.2819736437914148,-0.1313589081768014,0
25.113,0.5166835187057635,0.273356164236301,-0.1357293225487623,0
25.163,0.5156723963599595,0.2800887051382137,-0.1449079190997109,0
25.214,0.5176946410515673,0.2627367808499182,-0.1600756028238557,0
25.264,0.5176946410515673,0.2574671370178286,-0.181477098741108,0
25.315,0.5176946410515673,0.2623827297188246,-0.2068680418025956,0
25.366,0.5176946410515673,0.3078320262081003,-0.2354524467274565,0
25.416,0.5136501516683519,0.3605727286928091,-0.266741021150024,0
25.468,0.5166835187057635,0.4032115551491999,-0.3003468220624556,0
25.519,0.519716885743175,0.4436064378376998,-0.3356827995900049,0
25.57,0.5176946410515673,0.4873899142505412,-0.3722959996040025,0
25.621,0.5207280080889788,0.4760229204204514,-0.4097154703636785,0
25.673,0.5166835187057635,0.4601432638823369,-0.4474321843736104,0
25.723,0.519716885743175,0.4177982596233469,-0.4849311150430446,0
25.775,0.5176946410515673,0.3700784522037866,-0.5216376042466444,0
25.826,0.5176946410515673,0.2776689238756706,-0.5570328972372862,0
25.878,0.5156723963599595,0.265543182339821,-0.5905254790209882,0
25.93,0.5166835187057635,0.1977347408384795,-0.6215666456687172,0
25.981,0.5187057633973711,0.1158042963824209,-0.6494753209880302,0
26.032,0.5166835187057635,0.0969331781307865,-0.673366640891585,0
26.084,0.5187057633973711,0.0855616780742791,-0.6943016816439103,0
26.135,0.5156723963599595,0.0840300496480865,-0.7134660917145548,0
26.186,0.5207280080889788,0.0625918277021209,-0.7308753998442592,0
26.241,0.5227502527805865,0.0998070501983588,-0.7465717980178672,0
26.292,0.5470171890798787,0.273384160411678,-0.7605721381131973,0
26.343,0.5904954499494439,0.6495275309695563,-0.77294516582728,0
26.393,0.647118301314459,0.9153990058072016,-0.7837016011829333,0
26.444,0.9089989888776542,1.0,-0.7928877248380993,0
26.495,0.9373104145601618,0.9121636156810886,-0.8005370191155784,0
26.545,0.8179979777553085,0.7138484774979587,-0.8067216588653683,0
26.596,0.6865520728008089,0.5597292532433692,-0.8114883509981106,0
26.647,0.5925176946410516,0.3057505118676984,-0.8149172756049724,0
26.698,0.5318503538928211,0.1180237349882631,-0.817081950132917,0
26.749,0.5015166835187058,0.0493500429908717,-0.818043093693767,0
26.8,0.5247724974721941,0.4667876145312172,-0.817916047255161,0
26.852,0.5298281092012134,0.5169452290870021,-0.8167786344646895,0
26.903,0.5055611729019212,0.5890003822082148,-0.8147239670788433,0
26.954,0.4752275025278059,0.5055583815328092,-0.8126305653799846,0
27.006,0.39737108190091,0.340332298023925,-0.8122355624318605,0
27.058,0.1071789686552072,0.2401157083467044,-0.8130933517652293,0
27.109,0.0,0.1690606471345841,-0.8148520161224199,0
27.161,0.019211324570273,0.1373008935227365,-0.8171385723751067,0
27.211,0.4812942366026289,0.1167184123910751,-0.8196405285505555,0
27.262,0.6268958543983822,0.1239012895784662,-0.8221052595221693,0
27.313,0.5621840242669364,0.1569477844845445,-0.8241840087103757,0
27.364,0.4994944388270981,0.1851888263455791,-0.8256757544510346,0
27.414,0.4924165824064712,0.2335377517165521,-0.8263198014074139,0
27.465,0.512639029322548,0.2710215181408162,-0.8259073511917997,0
27.516,0.5176946410515673,0.3001724816270272,-0.8242718037657114,0
27.566,0.5176946410515673,0.3239281628461532,-0.8213468955833754,0
27.617,0.5136501516683519,0.371478090600067,-0.8169607361423769,0
27.668,0.5166835187057635,0.4015824969871626,-0.811028732535395,0
27.719,0.5136501516683519,0.4185595337258989,-0.8034275574875508,0
27.77,0.5166835187057635,0.4168236359408487,-0.7941993787934566,0
27.821,0.5136501516683519,0.4351917450875415,-0.7822479607545028,0
27.871,0.5166835187057635,0.4013304292156138,-0.7644392179409477,0
27.922,0.5166835187057635,0.3462067297209046,-0.7411374332262152,0
27.973,0.5176946410515673,0.3063640877722334,-0.7127084759422297,0
28.024,0.5146612740141557,0.2933089513540211,-0.6795208868122418,0
28.076,0.5156723963599595,0.2665270433905272,-0.6419444291844234,0
28.127,0.5187057633973711,0.2679479551646295,-0.6003286529705665,0
28.179,0.5166835187057635,0.2780846300508115,-0.5550252743839057,0
28.23,0.5187057633973711,0.28816184875634,-0.5063788382947143,0
28.281,0.5156723963599595,0.2752025547958808,-0.4547373364807237,0
28.332,0.5187057633973711,0.2927244872637337,-0.4004146794538872,0
28.383,0.5166835187057635,0.3106751462508898,-0.3437413780730536,0
28.434,0.5166835187057635,0.3336210986101576,-0.2850562452474212,0
28.485,0.5156723963599595,0.3425033010200013,-0.224671412691934,0
28.537,0.5166835187057635,0.3407762127064156,-0.1629137819297599,0
28.588,0.519716885743175,0.3405147169326536,-0.1002164613463725,0
28.64,0.5176946410515673,0.3331079435067156,-0.0372824693879181,0
28.691,0.519716885743175,0.3189748614118881,0.0254866906603907,0
28.742,0.5156723963599595,0.3261773786141876,0.0877023941712442,0
28.793,0.519716885743175,0.3208552715508837,0.1489726697258755,0
28.844,0.5156723963599595,0.3160866441739531,0.2089231446779815,0
28.895,0.5187057633973711,0.3113380346755491,0.2671546855199116,0
28.946,0.5166835187057635,0.3125125989549773,0.3232810722248747,0
28.996,0.5156723963599595,0.3133984867563675,0.3769270021687854,0
29.047,0.5146612740141557,0.3185908369159479,0.4277042905912251,0
29.098,0.5207280080889788,0.3065376453050208,0.4752347554231471,0
29.149,0.519716885743175,0.3133735760410936,0.519135405780959,0
29.199,0.5156723963599595,0.3245814442215645,0.5590427539943605,0
29.25,0.5187057633973711,0.32131992833748,0.5945751540956805,0
29.301,0.5146612740141557,0.3131684096468585,0.6253699508417419,0
29.351,0.5176946410515673,0.3199007799850266,0.6510515500386664,0
29.402,0.5156723963599595,0.3052397756286206,0.6712581087728027,0
29.452,0.519716885743175,0.2892924099812449,0.6856401086357362,0
29.503,0.5166835187057635,0.2964911582032978,0.6938151549469063,0
29.553,0.519716885743175,0.3154476528936887,0.6963602008090382,0
29.605,0.5166835187057635,0.3150921230546354,0.6952634512336222,0
29.657,0.5176946410515673,0.332311361903129,0.6907332974768003,0
29.708,0.5176946410515673,0.348258999908255,0.6830312403434551,0
29.759,0.5166835187057635,0.3534528132123796,0.6724194391620397,0
29.81,0.519716885743175,0.3394053427236139,0.6592050894879562,0
29.861,0.5156723963599595,0.3517702403704304,0.64374735058251,0
29.913,0.519716885743175,0.3464072272595773,0.6263400535843688,0
29.964,0.5166835187057635,0.3364714573046999,0.6074127909194345,0
30.015,0.5207280080889788,0.3359163525314285,0.587298811927111,0
30.066,0.5146612740141557,0.3227387047815296,0.5664173276324722,0
30.119,0.5176946410515673,0.2894111866988259,0.5451963377203266,0
30.17,0.5146612740141557,0.2714809384160744,0.5240888339931575,0
30.221,0.5176946410515673,0.2647255117987215,0.5035111305953732,0
30.273,0.5217391304347826,0.2378351504905037,0.483683780220701,0
30.324,0.5166835187057635,0.2344987812903994,0.46515695074575,0
30.375,0.519716885743175,0.288283494934478,0.4486069873289602,0
30.425,0.5187057633973711,0.326569052422088,0.434681409372351,0
30.476,0.5247724974721941,0.3499271152091212,0.4206964811387439,0
30.526,0.5176946410515673,0.4155460807692366,0.4067116881165193,0
30.577,0.5166835187057635,0.4682940393171542,0.3927824781014375,0
30.627,0.5136501516683519,0.4058457475625574,0.3789684824433363,0
30.678,0.5187057633973711,0.3674112656804708,0.3653327003489974,0
30.731,0.5166835187057635,0.3320059455427353,0.3519217373696426,0
30.782,0.5187057633973711,0.3234742282792548,0.3387915424763754,0
30.832,0.5207280080889788,0.3780067921644865,0.3259825238346434,0
30.884,0.5217391304347826,0.3803439102357562,0.313545838641653,0
30.934,0.5227502527805865,0.291639702030648,0.3015065556444116,0
30.986,0.5166835187057635,0.2107541479621845,0.28989914008576,0
31.037,0.519716885743175,0.1122382449527956,0.2787644855645577,0
31.09,0.5156723963599595,0.10058117124676,0.268132741835748,0
31.141,0.5288169868554096,0.113836743818137,0.2580301492249666,0
31.192,0.5278058645096056,0.1356883206423461,0.2484813030920718,0
31.244,0.5379170879676441,0.176121623008844,0.2394986061866115,0
31.295,0.5824064711830131,0.2582964225474459,0.2311053065203665,0
31.347,0.647118301314459,0.3810802693822178,0.2233163257695885,0
31.398,1.0,0.5009106351196031,0.2161432289431908,0
31.448,1.0,0.5715755319340656,0.2095765584985522,0
31.5,1.0,0.5953902428970748,0.203632609891682,0
31.551,1.0,0.6038338179492636,0.1983142295300226,0
31.602,1.0,0.6398355983899544,0.1936112123590396,0
31.652,0.6319514661274015,0.6789058709740481,0.1895249043932498,0
31.703,0.2366026289180991,0.6221802647163714,0.1860460608481031,0
31.753,0.2537917087967644,0.5608625195114552,0.183171216302618,0
31.804,0.3902932254802831,0.4480295781928118,0.1808803526336477,0
31.855,0.4277047522750253,0.2919123097166324,0.1791626420930832,0
31.905,0.3832153690596562,0.17541363871853,0.1779901574704367,0
31.956,0.339737108190091,0.1289815454421067,0.1773472852454602,0
32.006,0.2487360970677452,0.097490555550952,0.1771988949271425,0
32.058,0.0566228513650151,0.054343188811436,0.1776167807855018,0
32.109,0.0,0.0409777629408657,0.178648124896664,0
32.16,0.0687563195146612,0.0580106775612155,0.1802241246377138,0
32.211,0.4691607684529828,0.1047897931168904,0.1822475286329559,0
32.263,0.6046511627906977,0.1399286913385223,0.1846458341347663,0
32.314,0.5379170879676441,0.2034059815746345,0.1873197557491217,0
32.365,0.5025278058645096,0.2873873122300012,0.1901934813386756,0
32.417,0.4782608695652174,0.3903600549684022,0.1931626931989345,0
32.468,0.5085945399393327,0.48061287582687,0.1961477654391079,0
32.519,0.5146612740141557,0.5199155064375506,0.1990584929799532,0
32.571,0.5136501516683519,0.5519272519107692,0.2017916937678283,0
32.622,0.5176946410515673,0.5764595993651166,0.2042651367396561,0
32.672,0.5085945399393327,0.5093517842628315,0.2063796281493257,0
32.723,0.5237613751263903,0.4390503740429939,0.2080417230003926,0
32.776,0.512639029322548,0.3747631721299048,0.2091690926474865,0
32.827,0.5217391304347826,0.3092737441611115,0.2097392798784267,0
32.878,0.506572295247725,0.2365708847072034,0.2100363478137337,0
32.929,0.5156723963599595,0.191191801026713,0.2100443880706055,0
32.981,0.5207280080889788,0.1833266309201466,0.2097518742324442,0
33.033,0.5146612740141557,0.2029420671546387,0.2091464782367944,0
33.083,0.5227502527805865,0.2325888091833969,0.208212693415825,0
33.134,0.5085945399393327,0.2824885800937139,0.2069425589319788,0
33.185,0.5217391304347826,0.3120742540652487,0.205329206941947,0
33.235,0.5116279069767442,0.3105474728908929,0.2033632675350076,0
33.286,0.5146612740141557,0.3724378487239527,0.2010463293786741,0
33.336,0.5156723963599595,0.4344369300711357,0.1983760269105487,0
33.387,0.519716885743175,0.4196581784004506,0.1953507688608713,0
33.439,0.5106167846309404,0.4299534664366798,0.1919760994178552,0
33.491,0.5146612740141557,0.4597264231284003,0.1882558790051001,0
33.542,0.519716885743175,0.448243011473571,0.1841992088640727,0
33.593,0.512639029322548,0.3687589332335371,0.1798102467685178,0
33.645,0.5217391304347826,0.3449096582274998,0.1750975790090101,0
33.697,0.512639029322548,0.3183064352412178,0.1700722964840064,0
33.748,0.5176946410515673,0.279143103062112,0.1647515897614919,0
33.799,0.5116279069767442,0.2661362600039573,0.1591452884333444,0
33.849,0.5166835187057635,0.237769933212149,0.1532699150718131,0
33.9,0.5146612740141557,0.1868618815946855,0.1471188897793638,0
33.952,0.5146612740141557,0.1837049249664828,0.1405761159304541,0
34.003,0.5207280080889788,0.1793731489598409,0.1336971580622774,0
34.056,0.5136501516683519,0.2314404497589904,0.1265395211306119,0
34.107,0.5237613751263903,0.3064035635212216,0.1191628017141286,0
34.158,0.5166835187057635,0.3752599164358244,0.1116224939927374,0
34.209,0.519716885743175,0.4505905290633467,0.1039763494961354,0
34.261,0.5136501516683519,0.4790137376993173,0.0962827138431006,0
34.313,0.5146612740141557,0.4538639362002572,0.088601347757069,0
34.364,0.5217391304347826,0.4545673528354167,0.0809913085837044,0
34.415,0.5146612740141557,0.3909521598960744,0.0735107105473154,0
34.466,0.5217391304347826,0.3341558169500708,0.0662199287630338,0
34.516,0.512639029322548,0.3395091087578332,0.0591792266282578,0
34.567,0.5227502527805865,0.3167768132467298,0.0524483904505861,0
34.618,0.512639029322548,0.266894524526039,0.0460889724650752,0
34.668,0.5227502527805865,0.2352266239672601,0.0400179670555431,0
34.719,0.512639029322548,0.1859138088436436,0.034157412076748,0
34.77,0.5187057633973711,0.1692606054760677,0.0285168158767648,0
34.822,0.5166835187057635,0.1719552759446684,0.0231074701852158,0
34.873,0.5217391304347826,0.199302504631814,0.0179434087961662,0
34.924,0.5460060667340748,0.2353548297391469,0.0130339809388084,0
34.975,0.544994944388271,0.2730081481618303,0.0083827195871952,0
35.027,0.5743174924165825,0.337032559797782,0.0039949804167795,0
35.078,0.6400404448938322,0.4286770843604342,-0.000120752014195,0
35.129,1.0,0.4856898230916899,-0.0039612375380679,0
35.181,1.0,0.5280840284816917,-0.0075202523266644,0
35.232,1.0,0.5652367547874406,-0.0108005907114578,0
35.283,0.948432760364004,0.6212606086538931,-0.0138070359276742,0
35.334,0.6046511627906977,0.6588643518102277,-0.0165383979727331,0
35.389,0.4186046511627907,0.6575994578038479,-0.0190068956524065,0
35.441,0.39737108190091,0.6094056016126004,-0.021210750243549,0
35.492,0.4004044489383215,0.5013044588935283,-0.0231563096046947,0
35.543,0.3276036400404449,0.3511687163611728,-0.0247986480624464,0
35.595,0.2467138523761375,0.2283855792021276,-0.0260554251741824,0
35.646,0.1577350859453994,0.171818820352218,-0.0269743225158309,0
35.698,0.0,0.1207929639100004,-0.0275949937729655,0
35.749,0.1658240647118301,0.0566966075441753,-0.027957370231173,0
35.8,0.4266936299292214,0.0355659113393763,-0.0281021438951427,0
35.851,0.5419615773508595,0.0506218238369428,-0.0280762966588108,0
35.901,0.5136501516683519,0.0972459605251849,-0.0279298383799304,0
35.952,0.4974721941354904,0.1306520127609062,-0.0277022473467567,0
36.002,0.4944388270980789,0.1940383308535232,-0.0274328502048333,0
36.053,0.5116279069767442,0.3037090166165244,-0.0271686586916877,0
36.104,0.5045500505561173,0.4244616578545573,-0.0269565748879012,0
36.155,0.5146612740141557,0.4926623233728219,-0.0268405996938587,0
36.207,0.512639029322548,0.5382280224681874,-0.0268644180076029,0
36.259,0.5106167846309404,0.53501774416808,-0.0270648188029645,0
36.31,0.5166835187057635,0.5220846412863284,-0.0274898013077811,0
36.362,0.5096056622851365,0.4994568075473885,-0.0281844359473413,0
36.413,0.5176946410515673,0.4319409539400676,-0.0291934495222438,0
36.464,0.512639029322548,0.352442585864673,-0.0305611420631819,0
36.515,0.519716885743175,0.3024064216904746,-0.0322973033206972,0
36.567,0.5156723963599595,0.2393123303778815,-0.0342730891692222,0
36.619,0.512639029322548,0.1996218871183824,-0.0364920049559975,0
36.67,0.5207280080889788,0.2181261453247197,-0.038963396484825,0
36.721,0.5136501516683519,0.2698968805728615,-0.0416954214307927,0
36.773,0.5207280080889788,0.2820333413771173,-0.044686401866004,0
36.824,0.5136501516683519,0.3218330136003902,-0.0479375921830866,0
36.876,0.519716885743175,0.3299406326086943,-0.0514490881981359,0
36.927,0.5176946410515673,0.3142029361264447,-0.0552231133751284,0
36.978,0.5136501516683519,0.3469305732600085,-0.0592529992515757,0
37.03,0.5166835187057635,0.3736385602761543,-0.0635318354855896,0
37.083,0.5156723963599595,0.3296215890990169,-0.0680581668572681,0
37.134,0.5176946410515673,0.2952548949344784,-0.0728221784235996,0
37.184,0.5176946410515673,0.305546376361533,-0.0780598740393816,0
37.235,0.5187057633973711,0.2870304290070445,-0.0838908287097077,0
37.286,0.5136501516683519,0.2831469437314432,-0.0902193665537245,0
37.337,0.5146612740141557,0.3542941084214396,-0.0969466871933393,0
37.387,0.512639029322548,0.389627615912539,-0.1039875760045996,0
37.438,0.5187057633973711,0.4117872421930952,-0.1112528290095642,0
37.488,0.519716885743175,0.4461574714789225,-0.1186554722703991,0
37.54,0.5156723963599595,0.4536790209636639,-0.126110974216594,0
37.591,0.5156723963599595,0.3788368030236498,-0.1335318925913837,0
37.643,0.5156723963599595,0.3185494705142558,-0.1408487424331148,0
37.694,0.5187057633973711,0.2956355513195473,-0.1479726726371695,0
37.745,0.5166835187057635,0.2614993599293737,-0.1548386598058762,0
37.797,0.5176946410515673,0.2604470556777523,-0.1613670697903781,0
37.848,0.512639029322548,0.2588171920971265,-0.1674865433848931,0
37.9,0.5166835187057635,0.2487052869155798,-0.1731281637509591,0
37.951,0.5166835187057635,0.2405933679931172,-0.1782300388018602,0
38.001,0.5166835187057635,0.2030909054603831,-0.1827163575490835,0
38.052,0.5187057633973711,0.2253120699954112,-0.1865356965367701,0
38.103,0.5156723963599595,0.221518427608992,-0.1896270271129656,0
38.154,0.519716885743175,0.213913699574668,-0.1919908245665429,0
38.204,0.5166835187057635,0.2470348830583483,-0.193713519069594,0
38.255,0.5308392315470172,0.3104362843053765,-0.1947792052453212,0
38.307,0.5591506572295248,0.368526176594054,-0.1951678188335681,0
38.358,0.5955510616784632,0.4294720955323975,-0.1948728563431609,0
38.41,0.9898887765419616,0.4987301418148684,-0.1938970771019612,0
38.46,1.0,0.5633190878163756,-0.1922247345060213,0
38.511,0.9989888776541962,0.5811762524082553,-0.1898522339805395,0
38.562,0.8260869565217391,0.6247703942472996,-0.186786717582708,0
38.612,0.4509605662285136,0.6400286943483754,-0.1830111901017181,0
38.663,0.3195146612740142,0.5678152996963015,-0.178511077393406,0
38.714,0.3296258847320525,0.4958773220491504,-0.1733122535739233,0
38.765,0.0,0.3754574819873498,-0.1674460703530202,0
38.816,0.0,0.2354794019529067,-0.1609358419625595,0
38.866,0.1193124368048533,0.1611058403058927,-0.1538278912844304,0
38.918,0.5571284125379171,0.1252554759651664,-0.1461564233573424,0
38.968,0.6198179979777554,0.104536172153913,-0.137965972305043,0
39.02,0.5419615773508595,0.0722500900677001,-0.1292930623957431,0
39.071,0.474216380182002,0.0728473026324701,-0.1201933129233137,0
39.122,0.4944388270980789,0.09874410452057,-0.1107158455801535,0
39.173,0.512639029322548,0.1535829677629284,-0.1009105603419924,0
39.225,0.5166835187057635,0.1949314722407969,-0.0908376862695996,0
39.275,0.519716885743175,0.2573923482999051,-0.0805534068379827,0
39.327,0.5085945399393327,0.376425842821852,-0.0701202933604714,0
39.379,0.5207280080889788,0.4981967376765294,-0.059602464183996,0
39.43,0.5106167846309404,0.5621027660879745,-0.0490727053444894,0
39.481,0.5187057633973711,0.5504824167950215,-0.0385981763872578,0
39.533,0.5146612740141557,0.4687050131338083,-0.0282500359069159,0
39.584,0.5106167846309404,0.4144528241758363,-0.0181137082305453,0
39.635,0.5176946410515673,0.3733966911229237,-0.0082657312947416,0
39.687,0.5146612740141557,0.3040573480498784,0.001203859981701,0
39.738,0.5308392315470172,0.2748420957654049,0.0102082798931317,0
39.789,0.5520728008088979,0.2595192799624332,0.0189519789117291,0
39.84,0.6127401415571284,0.2350274129898274,0.0276089954646412,0
39.891,0.8877654196157736,0.2585591499869524,0.0361835144449855,0
39.941,0.8645096056622852,0.3098711491778291,0.0446692871431286,0
39.992,0.6056622851365016,0.3751471850655034,0.0530754346679733,0
40.043,0.3700707785642063,0.4005797829097857,0.0613977911496392,0
40.093,0.1405460060667341,0.4265819855678918,0.0696374497566407,0
40.144,0.1162790697674418,0.4188343572325072,0.0777999030965757,0
40.195,0.4236602628918099,0.3259839922581971,0.0858762796142909,0
40.246,0.5925176946410516,0.243360371738423,0.0938799820754481,0
40.296,0.5753286147623863,0.1807031189009623,0.1018719557717808,0
40.348,0.5116279069767442,0.1213385886129877,0.1099964677613178,0
40.399,0.506572295247725,0.0985244255420333,0.1182084011104449,0
40.45,0.5035389282103134,0.1040353206215465,0.1264700786401678,0
40.501,0.5227502527805865,0.1336619845309648,0.1347455843173222,0
40.552,0.5116279069767442,0.2151529755512748,0.1430075670931554,0
40.604,0.525783619817998,0.3991808601376442,0.1512139110960741,0
40.655,0.5136501516683519,0.5689628832322945,0.1593469554915254,0
40.707,0.512639029322548,0.6499789504455967,0.1673809073952994,0
40.758,0.5217391304347826,0.651275554792111,0.17528671292021,0
40.809,0.5096056622851365,0.6026707696990725,0.1830418254678658,0
40.861,0.5247724974721941,0.4725841406341322,0.1906329743140722,0
40.911,0.5116279069767442,0.3534962480334791,0.1980374098791488,0
40.963,0.5237613751263903,0.2585337300456874,0.205240091959896,0
41.014,0.5015166835187058,0.1886165375951811,0.2122337864019103,0
41.065,0.5207280080889788,0.1357307134658039,0.2190028087527793,0
41.117,0.5187057633973711,0.1079922520117188,0.2255386927386686,0
41.168,0.5136501516683519,0.0937038561789206,0.2318354441213665,0
41.219,0.5227502527805865,0.1032432602960761,0.2378588541558959,0
41.269,0.5136501516683519,0.1307132389567878,0.2435646250347583,0
41.32,0.525783619817998,0.1657118869875679,0.2489454829707986,0
41.371,0.5116279069767442,0.2109730074033404,0.2539917836213263,0
41.421,0.5409504550050557,0.2486024215020588,0.2586913633785845,0
41.472,0.5854398382204247,0.3145786947372476,0.2630421371562859,0
41.523,0.8301314459049546,0.4040818097463899,0.2670403602023916,0
41.574,1.0,0.5104154481149367,0.2706836118572404,0
41.625,1.0,0.6613155352428677,0.273966952196107,0
41.676,0.7684529828109201,0.7727168214572645,0.2769003436848249,0
41.728,0.5571284125379171,0.8416310675224785,0.2794833346943863,0
41.779,0.4560161779575328,0.7126680837794515,0.2817212051100131,0
41.83,0.3579373104145602,0.4744968263441042,0.2836203392174159,0
41.881,0.0,0.2276968054794472,0.2851896955281945,0
41.933,0.0,0.0890808989297767,0.2864448236674932,0
41.984,0.0748230535894843,0.0514939105397283,0.2873940663839285,0
42.036,0.5308392315470172,0.0507081406309188,0.2880561501633729,0
42.086,0.6258847320525784,0.0389498418647953,0.2884433535507886,0
42.138,0.5419615773508595,0.0395832889271832,0.2885732453374383,0
42.189,0.487360970677452,0.0658839354839772,0.2884705246718546,0
42.241,0.4924165824064712,0.1194208589949668,0.288147910567158,0
42.292,0.5106167846309404,0.1645347289254168,0.2876370154929883,0
42.343,0.5166835187057635,0.2399279574924941,0.2869594870565346,0
42.394,0.5156723963599595,0.3369089407160903,0.2861422115353229,0
42.446,0.512639029322548,0.4461232177899643,0.2852184936855559,0
42.496,0.5116279069767442,0.5122280273770305,0.2842149716721938,0
42.547,0.5146612740141557,0.5245135427207226,0.2831642873376285,0
42.598,0.5156723963599595,0.4957490087669201,0.2820955814859127,0
42.648,0.5156723963599595,0.473830526939716,0.2810488371880373,0
42.699,0.5156723963599595,0.4459211499427778,0.2800618893042239,0
42.749,0.5156723963599595,0.3938496546190632,0.2791693415359702,0
42.8,0.5146612740141557,0.3575490457156995,0.2784168613011317,0
42.85,0.5166835187057635,0.3337377259516636,0.2778476960279641,0
42.901,0.5166835187057635,0.2677235354648388,0.2774226141692315,0
42.951,0.5166835187057635,0.2140014523138004,0.2769974999673379,0
43.002,0.5156723963599595,0.1673729025736779,0.276572354432961,0
43.054,0.5156723963599595,0.156577818406799,0.276147133072294,0
43.104,0.5176946410515673,0.1707781014984812,0.2757217882457548,0
43.155,0.5176946410515673,0.168767635819487,0.275296546633939,0
43.207,0.5176946410515673,0.1776282692249516,0.274871365806562,0
43.259,0.5176946410515673,0.221272318413073,0.2744457130307864,0
43.31,0.5207280080889788,0.2794883140296523,0.2740195940864502,0
43.362,0.5753286147623863,0.3288519052766284,0.2735930175524843,0
43.413,0.7087967644084935,0.4077351505389038,0.2731664799333271,0
43.465,1.0,0.471414193462518,0.2727394979905013,0
43.517,1.0,0.5157233178045594,0.2723120767954046,0
43.567,0.9989888776541962,0.6116792137056527,0.2718844475671718,0
43.619,0.9180990899898888,0.6385607547139576,0.2714565666003268,0
43.671,0.3114256825075834,0.6326458794845774,0.2710284411609236,0
43.722,0.1456016177957532,0.576851190961978,0.2706003026323982,0
43.773,0.2598584428715875,0.5317280640356719,0.2701716203167938,0
43.825,0.025278058645096,0.3978617648968267,0.2697428949993394,0
43.876,0.0,0.2111644280986305,0.269313917344208,0
43.927,0.1840242669362993,0.0608214028264652,0.2688849237089892,0
43.978,0.5540950455005056,0.0137809192879819,0.2684559276136102,0
44.028,0.6107178968655208,0.0110054257456868,0.2680265024631687,0
44.079,0.525783619817998,0.0395138414980392,0.2675972068576602,0
44.13,0.4883720930232558,0.0497596766184283,0.2671676250511474,0
44.18,0.4964610717896865,0.0707060427700418,0.2667344201102875,0
44.231,0.5116279069767442,0.1625876608002425,0.2662983515515917,0
44.282,0.5187057633973711,0.3232453692350759,0.2658604564450986,0
44.334,0.5136501516683519,0.4806935820253549,0.2654211014498937,0
44.385,0.5146612740141557,0.5461323449852616,0.2649809056525352,0
44.437,0.512639029322548,0.6201420888842882,0.2645411835307194,0
44.489,0.5156723963599595,0.63511270871264,0.2641021762044411,0
44.54,0.512639029322548,0.6002837686258634,0.2636642283976318,0
44.59,0.5136501516683519,0.5254513383325212,0.2632278735288069,0
44.641,0.5166835187057635,0.3936515114643497,0.2627938817568864,0
44.692,0.5136501516683519,0.3150229987801621,0.2623626511454822,0
44.743,0.5156723963599595,0.2388818028290649,0.2619347066040436,0
44.793,0.5136501516683519,0.1899453631885261,0.2615102334938814,0
44.845,0.5187057633973711,0.1573394033944906,0.2610896943864276,0
44.896,0.5136501516683519,0.173826244622607,0.2606737306602378,0
44.947,0.5156723963599595,0.1652147769776418,0.2602621877845796,0
44.999,0.5156723963599595,0.1627291261908997,0.2598553242607482,0
45.05,0.5166835187057635,0.1513858730733309,0.259453786803512,0
45.101,0.5187057633973711,0.1571500057324447,0.2590576355423484,0
45.152,0.5146612740141557,0.2114314030803734,0.2586672600086148,0
45.204,0.5176946410515673,0.2679473441064707,0.2582826668839733,0
45.255,0.519716885743175,0.3339587642037773,0.2579039743058935,0
45.305,0.5935288169868554,0.4176636181589894,0.2575311198222716,0
45.356,1.0,0.4920411744449163,0.2571644636408672,0
45.407,1.0,0.577052661822719,0.2568038409751432,0
45.457,1.0,0.6170718598388624,0.25644912852127,0
45.508,1.0,0.6726233025334001,0.2561007744588228,0
45.559,0.7714863498483316,0.6949703535755407,0.2557583692261107,0
45.609,0.3488372093023256,0.6424874194174105,0.255422026314656,0
45.66,0.3003033367037411,0.5653245798925,0.2550913730240367,0
45.712,0.378159757330637,0.4707382262723952,0.2547664981160504,0
45.763,0.3417593528816987,0.3091891026267465,0.2544469634589725,0
45.814,0.0,0.1767856227912423,0.254132520604462,0
45.865,0.0,0.1176440246911498,0.2538233093176498,0
45.916,0.0,0.079209268372491,0.2535191545572124,0
45.968,0.4580384226491406,0.0441155860405226,0.2532195389345957,0
46.019,0.634984833164813,0.0320633931870443,0.2529241366438526,0
46.07,0.5692618806875632,0.0523562844260338,0.2524110222345017,0
46.122,0.4883720930232558,0.0942295663798112,0.2517054084604646,0
46.173,0.4883720930232558,0.1314299902786371,0.2508549963963302,0
46.224,0.5096056622851365,0.1886740937150725,0.2499015079309368,0
46.275,0.5156723963599595,0.3180231153267842,0.2488899103431294,0
46.327,0.5187057633973711,0.493228414432735,0.2478673698169531,0
46.378,0.5096056622851365,0.6506848949759478,0.2468738519474416,0
46.432,0.5156723963599595,0.6881551162380609,0.2459424032183259,0
46.484,0.5146612740141557,0.705748408577218,0.2451141416450346,0
46.536,0.512639029322548,0.6878860612434484,0.2444222196468863,0
46.587,0.5187057633973711,0.5648335408350681,0.243893587108805,0
46.638,0.5116279069767442,0.4285169521287323,0.2435633138776016,0
46.689,0.5207280080889788,0.3140444322111363,0.2434582827545566,0
46.739,0.5136501516683519,0.2141768879524083,0.243608370142953,0
46.79,0.5187057633973711,0.1161750677070391,0.2440354507103694,0
46.84,0.5146612740141557,0.0684607975848679,0.2447610856337163,0
46.891,0.519716885743175,0.0587030787772226,0.2458049249862279,0
46.942,0.512639029322548,0.0727831933280963,0.2471893430776808,0
46.993,0.5176946410515673,0.1031360133853654,0.2489241570423648,0
47.044,0.5176946410515673,0.1508868726550218,0.2510226911114863,0
47.095,0.5146612740141557,0.2110595940899794,0.2534965397832855,0
47.147,0.5298281092012134,0.2565179230528306,0.256355086252533,0
47.198,0.5844287158746209,0.3284340930230607,0.2596010497173826,0
47.249,0.6916076845298281,0.4541267202357544,0.2632406498806778,0
47.3,1.0,0.5391866684158995,0.2672870290413196,0
47.351,1.0,0.6583683085609701,0.2717358344162708,0
47.402,1.0,0.7590249625043621,0.2765814999736404,0
47.453,0.6481294236602629,0.8154925088627176,0.2818263803322058,0
47.505,0.3640040444893832,0.6953827670647711,0.2874654995301187,0
47.557,0.2932254802831143,0.5165269048307067,0.2934916703020604,0
47.608,0.1092012133468149,0.2781163744641116,0.2998956441791423,0
47.659,0.0,0.1197116111408468,0.3066659288418338,0
47.711,0.0,0.0822125180682636,0.3137893022376383,0
47.762,0.4378159757330637,0.0835636171328936,0.3212497830693857,0
47.813,0.6188068756319515,0.0549839037185859,0.3290347433941276,0
47.865,0.5611729019211324,0.0517036376112406,0.3371190280878799,0
47.916,0.4924165824064712,0.0734654856085179,0.3454812030414564,0
47.967,0.4883720930232558,0.1172691848093309,0.3546720098587372,0
48.017,0.5045500505561173,0.1597899593331079,0.3645853746840437,0
48.068,0.5166835187057635,0.2314546290246671,0.3750783246349236,0
48.119,0.5136501516683519,0.3041915427273266,0.3860015548059596,0
48.17,0.5136501516683519,0.3928024248153059,0.3972093146800666,0
48.22,0.5116279069767442,0.4560684406042622,0.4085511650850497,0
48.271,0.5146612740141557,0.4866367860826942,0.4198967751637741,0
48.322,0.5156723963599595,0.4980267549273415,0.4311022346808748,0
48.373,0.5166835187057635,0.492239370327073,0.4420435916161516,0
48.424,0.5136501516683519,0.4764591081812023,0.452583314571175,0
48.476,0.5136501516683519,0.4449234623164848,0.4626036477156101,0
48.528,0.5156723963599595,0.4253049278023962,0.4719811661373678,0
48.578,0.5146612740141557,0.3851064103124587,0.4805879376399584,0
48.629,0.5156723963599595,0.3155261244783193,0.4883159882420571,0
48.681,0.5146612740141557,0.2485089156858011,0.4953133765178874,0
48.732,0.5156723963599595,0.1959341701166422,0.5015537817563205,0
48.783,0.5156723963599595,0.1840574734359708,0.5069861142358625,0
48.834,0.5166835187057635,0.1795055965809477,0.5115625891017501,0
48.885,0.5166835187057635,0.1587858374583711,0.5152528772643068,0
48.936,0.5156723963599595,0.1530354660021231,0.5180095697509306,0
48.987,0.5156723963599595,0.1964765777702303,0.519811879800804,0
49.038,0.5187057633973711,0.2488158530713497,0.5206406821519849,0
49.088,0.5652173913043479,0.2949680379984941,0.520464391060286,0
49.139,0.9464105156723964,0.3663156071452975,0.5192780429933017,0
49.19,1.0,0.4194051513138418,0.5170707570916315,0
49.242,1.0,0.4739767895852205,0.513843507413299,0
49.292,1.0,0.5759817997332861,0.5095979314605872,0
49.343,0.8806875631951466,0.5991960040681833,0.5043277699071878,0
49.394,0.3245702730030333,0.6239261177167408,0.4980589473468355,0
49.445,0.1951466127401415,0.6096352744611959,0.4908088462314328,0
49.495,0.2972699696663296,0.6069251087236612,0.482600131857823,0
49.546,0.3518705763397371,0.4917003159055179,0.4734475726942531,0
49.596,0.0839231547017189,0.2901684261043151,0.4633981211290168,0
49.647,0.0,0.0985418853907227,0.4524901874085749,0
49.697,0.1405460060667341,0.0250456427601086,0.4407598857984576,0
49.748,0.5267947421638018,0.0227424081980038,0.4282653499829263,0
49.799,0.6086956521739131,0.0438170129962188,0.4150663751451215,0
49.849,0.5490394337714863,0.0558284167962606,0.4012158968335981,0
49.9,0.493427704752275,0.0842909823400033,0.3867777074597245,0
49.95,0.5015166835187058,0.1398846192360072,0.3718188485545659,0
50.001,0.5096056622851365,0.2373016990478068,0.3564293791225377,0
50.052,0.5247724974721941,0.3086946785553807,0.3406852543179606,0
50.102,0.5096056622851365,0.3863739696132231,0.3246723149331374,0
50.153,0.5207280080889788,0.4566155285023486,0.3084573794317569,0
50.203,0.5116279069767442,0.4558928589969466,0.2921288630129703,0
50.254,0.5187057633973711,0.4735395642855216,0.2757960316677517,0
50.305,0.5096056622851365,0.4470323205563937,0.2595662702684684,0
50.355,0.5187057633973711,0.4107010126202193,0.2435670477049478,0
50.406,0.5075834175935289,0.4050238403602951,0.2279100201004047,0
50.456,0.5227502527805865,0.3513884527466405,0.2127370920968248,0
50.507,0.5136501516683519,0.3209760685748865,0.1981753536241923,0
50.558,0.5136501516683519,0.3363182178373449,0.1836730434083033,0
50.608,0.5176946410515673,0.3895895067810951,0.1691898733339154,0
50.659,0.5146612740141557,0.3662925145866876,0.1547236491565342,0
50.71,0.519716885743175,0.3292448411356713,0.1402862258297095,0
50.761,0.5166835187057635,0.2755764388325392,0.1258808098192769,0
50.811,0.5227502527805865,0.221749978003861,0.1115195120974283,0
50.862,0.512639029322548,0.21561248480813,0.0971973893751934,0
50.913,0.5237613751263903,0.1989105262002101,0.0829259816958285,0
50.963,0.5106167846309404,0.1593342677669046,0.068699774841425,0
51.014,0.5207280080889788,0.1464214237502966,0.0545297379263032,0
51.065,0.5146612740141557,0.1562304782488588,0.0404029395274425,0
51.115,0.5217391304347826,0.182653021820113,0.0263288282202132,0
51.166,0.5581395348837209,0.2447947389456221,0.0123105800098219,0
51.216,0.5591506572295248,0.300667274812286,-0.0016505644998017,0
51.267,0.5854398382204247,0.3424155511109829,-0.0155452121728461,0
51.318,0.6774519716885743,0.4373163837668614,-0.0293810241346657,0
51.369,0.9453993933265924,0.5724285850441375,-0.0431447078197573,0
51.419,1.0,0.69360555367296,-0.0568443038760402,0
51.47,0.9504550050556118,0.783833279336504,-0.0704882456119031,0
51.521,0.7007077856420627,0.8055434868895021,-0.0840616367273314,0
51.571,0.5106167846309404,0.6685289291170377,-0.0975817540433634,0
51.622,0.4004044489383215,0.4473672399498531,-0.1110571287183637,0
51.672,0.2861476238624874,0.2442888896506132,-0.1244722685444503,0
51.723,0.0,0.1262989073640144,-0.1378370663752524,0
51.773,0.0,0.080140439655537,-0.1523868159603529,0
51.824,0.0,0.0623100456299783,-0.1680138719465143,0
51.874,0.4711830131445905,0.0488111549932985,-0.1844439761817418,0
51.924,0.627906976744186,0.0624339353147062,-0.2013854603822962,0
51.975,0.570273003033367,0.0856295002740846,-0.2186202108221062,0
52.026,0.4903943377148635,0.1260477906013747,-0.2358896919690087,0
52.077,0.4944388270980789,0.1665093175584954,-0.252992186274714,0
52.128,0.5045500505561173,0.2293254599212156,-0.2696839110169842,0
52.179,0.5166835187057635,0.2733678206081819,-0.2857946380312499,0
52.23,0.5146612740141557,0.3646053525286254,-0.3011339789328962,0
52.281,0.5146612740141557,0.4531511209165735,-0.3154941352055604,0
52.331,0.519716885743175,0.4492268304405324,-0.3287408628905515,0
52.382,0.5136501516683519,0.4589449388431943,-0.340699496223084,0
52.432,0.5227502527805865,0.4457916583258058,-0.3512429652285211,0
52.483,0.5096056622851365,0.3873235405358884,-0.3602280935258006,0
52.534,0.525783619817998,0.3910631385735256,-0.3675517216981372,0
52.585,0.512639029322548,0.4005711601753289,-0.3731148455083648,0
52.638,0.5227502527805865,0.3578170622363231,-0.3768229555414717,0
52.689,0.5136501516683519,0.3068129913469617,-0.3785733544444258,0
52.74,0.5146612740141557,0.295347502706581,-0.378290587420045,0
52.792,0.5217391304347826,0.292160761445595,-0.3758948311396259,0
52.843,0.512639029322548,0.2554226212245992,-0.3713310730959738,0
52.893,0.5237613751263903,0.2637627967899268,-0.3645274643561589,0
52.944,0.5096056622851365,0.2372847565475335,-0.3554635135576016,0
52.995,0.525783619817998,0.2379039914123925,-0.342233225057782,0
53.046,0.5146612740141557,0.2297354675701737,-0.3252161383249763,0
53.097,0.525783619817998,0.282290285028708,-0.3047728151401287,0
53.148,0.506572295247725,0.3094343845618595,-0.2812957511214649,0
53.198,0.5207280080889788,0.3543296399801774,-0.2551575667321917,0
53.249,0.5136501516683519,0.4382568622497043,-0.2267329724165656,0
53.299,0.5156723963599595,0.4741851198416282,-0.1964002531240614,0
53.35,0.519716885743175,0.4734162966144147,-0.1645084699570156,0
53.4,0.512639029322548,0.455169480091747,-0.1314410281518045,0
53.451,0.5166835187057635,0.5194211569596582,-0.0975551218104242,0
53.502,0.5136501516683519,0.4596289142725125,-0.0632032469563763,0
53.552,0.5237613751263903,0.3860073794494276,-0.0287332015346692,0
53.603,0.5136501516683519,0.3085286630977514,0.0054942350957138,0
53.653,0.5237613751263903,0.2514293726188725,0.0391703546671668,0
53.704,0.512639029322548,0.2087678772681909,0.0719368355823326,0
53.754,0.5267947421638018,0.1542204233222455,0.1034942736114061,0
53.805,0.5106167846309404,0.1228628680725375,0.1334936511948325,0
53.856,0.5267947421638018,0.1310360929623166,0.1616365373402613,0
53.907,0.5156723963599595,0.133838095183047,0.1876253655704189,0
53.957,0.5237613751263903,0.1538164889066016,0.2111115636732965,0
54.008,0.5399393326592518,0.2295400732392986,0.2318030082910436,0
54.059,0.5985844287158747,0.2830930616209979,0.2493985815919528,0
54.11,0.6430738119312437,0.3150480114523385,0.2635935330224621,0
54.16,0.9989888776541962,0.3967841320051782,0.2740852494749251,0
54.21,1.0,0.4998435595019033,0.2806163426568946,0
54.261,1.0,0.6474090912410356,0.2828798109461727,0
54.311,0.8382204246713852,0.7570911565308684,0.280619239287768,0
54.362,0.5743174924165825,0.8587183091099359,0.2750725679983823,0
54.413,0.4762386248736097,0.8107032813949782,0.2664222191059782,0
54.464,0.4782608695652174,0.6464623760910537,0.2547264519326022,0
54.515,0.4711830131445905,0.4023450654741866,0.2400530042897168,0
54.566,0.4196157735085946,0.1857658831268835,0.2224917701512514,0
54.618,0.3761375126390293,0.1068572471423563,0.2021256939579239,0
54.669,0.2548028311425682,0.0933042111231343,0.1790989185254528,0
54.72,0.0,0.0671467312062097,0.1535271240804587,0
54.771,0.0,0.0427312966392217,0.1255871892245643,0
54.822,0.153690596562184,0.0555758037771881,0.0954521850124965,0
54.872,0.5672396359959555,0.0907318967231003,0.063269302003464,0
54.923,0.6188068756319515,0.1118722185655584,0.0292859713442084,0
54.973,0.5288169868554096,0.1426592216565152,-0.0063003514635107,0
55.024,0.4833164812942366,0.2056196406865595,-0.0432310125429347,0
55.074,0.493427704752275,0.3040378341335112,-0.084818218934983,0
55.125,0.5106167846309404,0.3756175630251223,-0.1302116137703211,0
55.177,0.5176946410515673,0.4434283004997823,-0.1784348348232485,0
55.228,0.5146612740141557,0.5105643131734307,-0.2284021705127004,0
55.279,0.5136501516683519,0.5503282811415883,-0.2791927747697378,0
55.33,0.5136501516683519,0.5395261188908157,-0.3297881033673664,0
55.381,0.5136501516683519,0.5200197028450408,-0.3792055439988397,0
55.431,0.5136501516683519,0.4848296580682701,-0.426534550224777,0
55.482,0.5146612740141557,0.4356687942798774,-0.4707803608464846,0
55.532,0.5146612740141557,0.361971314772099,-0.5109560243290896,0
55.583,0.5156723963599595,0.2832057260289121,-0.5485049501801209,0
55.634,0.5156723963599595,0.1921798446722399,-0.582970284773418,0
55.685,0.5166835187057635,0.1615946371447109,-0.6139335185222841,0
55.736,0.5146612740141557,0.1593586929710701,-0.6409905867209131,0
55.788,0.5166835187057635,0.1503071811455139,-0.6637695490368567,0
55.839,0.5176946410515673,0.1819444634089392,-0.6789693012207565,0
55.89,0.5156723963599595,0.2381177667763841,-0.6864618233971758,0
55.941,0.5166835187057635,0.2775850086963822,-0.6866960034957943,0
55.992,0.5156723963599595,0.3316435092637446,-0.6800505893497715,0
56.043,0.5166835187057635,0.4281036402116072,-0.6669274971220713,0
56.094,0.5156723963599595,0.5171547460664798,-0.6477541379071594,0
56.144,0.5166835187057635,0.6015975051703402,-0.622949009299189,0
56.195,0.5166835187057635,0.6751248210626798,-0.5929023606256147,0
56.246,0.5156723963599595,0.6107456065698327,-0.55806897835793,0
56.297,0.5176946410515673,0.4969143095046043,-0.5188655886776028,0
56.348,0.5166835187057635,0.3991915742772165,-0.4757290861427976,0
56.398,0.5166835187057635,0.2915845822417002,-0.4290827531179444,0
56.449,0.5156723963599595,0.2143452438572781,-0.379370040344168,0
56.499,0.5176946410515673,0.1986024798899996,-0.3270537667219895,0
56.55,0.5156723963599595,0.1646131086280617,-0.2725710652458717,0
56.601,0.5166835187057635,0.1281724949969876,-0.2163578745669048,0
56.652,0.5156723963599595,0.1192444329826489,-0.1588656679321587,0
56.704,0.5176946410515673,0.1384793801351683,-0.1005391833778905,0
56.755,0.5176946410515673,0.1624040528795375,-0.0418170950573306,0
56.805,0.5247724974721941,0.2169446815365473,0.0168096097803966,0
56.856,0.5743174924165825,0.2981784611821864,0.07490809569348,0
56.907,0.6420626895854399,0.3433118774645736,0.1319809900960697,0
56.958,1.0,0.4153532936830088,0.1875675591537418,0
57.009,1.0,0.5540100248736443,0.2411815741005689,0
57.06,1.0,0.6485302921315775,0.2923557654295794,0
57.111,0.9989888776541962,0.6857310362857493,0.3405658098877695,0
57.163,0.8918099089989889,0.7313143824168333,0.3853575243186542,0
57.213,0.4004044489383215,0.7817722953305889,0.4262535572359462,0
57.264,0.1749241658240647,0.700848153343295,0.4627510622218547,0
57.316,0.2082912032355915,0.4434164546406259,0.4943661521175451,0
57.367,0.3710819009100101,0.1644394661830318,0.5205894448326807,0
57.418,0.4752275025278059,0.0534824226982358,0.5409606548118115,0
57.47,0.3417593528816987,0.0470031958481077,0.5549489614728573,0
57.521,0.0,0.0685207494380167,0.562030087665951,0
57.571,0.0,0.073184039935721,0.5617041709445085,0
57.622,0.1193124368048533,0.078532008774154,0.5534458539304401,0
57.672,0.5611729019211324,0.1162706363271969,0.5410391674024644,0
57.723,0.6268958543983822,0.2028224210938116,0.5249925933372421,0
57.774,0.5338725985844287,0.2483888376608144,0.5057203156462604,0
57.824,0.480283114256825,0.2977140182882694,0.4835302666183176,0
57.875,0.4924165824064712,0.3704435266679501,0.4589059168871268,0
57.926,0.5085945399393327,0.4427905146583938,0.4322909313306264,0
57.978,0.5176946410515673,0.4605927065766469,0.4041577886522796,0
58.03,0.512639029322548,0.4400428441720088,0.3750764055374929,0
58.081,0.512639029322548,0.4389335769403668,0.3455310181201199,0
58.133,0.5136501516683519,0.4505524590621766,0.3159426592430199,0
58.184,0.512639029322548,0.416978305833626,0.2869399694287464,0
58.236,0.5156723963599595,0.4080344159746453,0.2591568378100275,0
58.287,0.5116279069767442,0.4287260599543945,0.2332552430304473,0
58.339,0.5136501516683519,0.4448758012302212,0.209933628818679,0
58.389,0.5136501516683519,0.403645038712661,0.1899000323544912,0
58.44,0.5146612740141557,0.3766246553204025,0.170314118809755,0
58.492,0.5156723963599595,0.3162948310608251,0.150739055482072,0
58.543,0.5136501516683519,0.2689796180711034,0.1311924231565269,0
58.595,0.5166835187057635,0.2915110163910384,0.111687535927381,0
58.646,0.5156723963599595,0.306263802062615,0.0922162380040938,0
58.701,0.5176946410515673,0.2937453628466855,0.0728103297248894,0
58.752,0.5176946410515673,0.2793596310364711,0.0534890252225126,0
58.803,0.5146612740141557,0.2678281348744423,0.034240094207131,0
58.855,0.5176946410515673,0.244943744522374,0.0150829581643168,0
58.906,0.5146612740141557,0.2276336228902268,-0.0039615074455279,0
58.956,0.5187057633973711,0.237508316681813,-0.0228953358603383,0
59.007,0.5136501516683519,0.2631710802660078,-0.0416906392517,0
59.058,0.5187057633973711,0.3064871308742921,-0.0603693101235296,0
59.108,0.5187057633973711,0.3273000729529796,-0.0788901050469159,0
59.159,0.5227502527805865,0.3418195801514007,-0.0972743363193826,0
59.21,0.5480283114256825,0.3478042293504408,-0.1155171537578365,0
59.261,0.6420626895854399,0.4147726030774175,-0.1336145774416097,0
59.312,1.0,0.5351196727141682,-0.1515755758128465,0
59.364,1.0,0.6548536701481529,-0.1694082568670654,0
59.415,1.0,0.7219989394744505,-0.1870908182296671,0
59.466,0.9160768452982812,0.7315856122988251,-0.2045508876115955,0
59.517,0.4863498483316481,0.6928435528308762,-0.2218795932523971,0
59.568,0.3094034378159757,0.5418068897109611,-0.2390891404490895,0
59.62,0.307381193124368,0.3584185739027598,-0.2562393362731776,0
59.671,0.1900910010111223,0.2503200588765363,-0.2733369232483102,0
59.724,0.0,0.1826910881607539,-0.2903466161795272,0
59.776,0.0,0.1150267068098783,-0.3072667344385595,0
59.826,0.3993933265925177,0.0500638337267753,-0.324092273613292,0
59.877,0.6127401415571284,0.0286687713993839,-0.3408126049314604,0
59.927,0.5591506572295248,0.0496520838208472,-0.3574254997792008,0
59.978,0.5025278058645096,0.0941535809123265,-0.3739231051825016,0
60.03,0.4833164812942366,0.1274120415698107,-0.3903426404701879,0
60.081,0.5055611729019212,0.2049874261520097,-0.4066422709621955,0
60.132,0.5146612740141557,0.3569524827924254,-0.4228285374615186,0
60.183,0.5116279069767442,0.5293498295316514,-0.4389063351709079,0
60.234,0.5176946410515673,0.627840177485458,-0.4548749349329664,0
60.286,0.5085945399393327,0.6478219554353494,-0.4707244361501326,0
60.336,0.5187057633973711,0.5960359346101263,-0.4864684970328932,0
60.39,0.5075834175935289,0.5376082879807136,-0.5021121044574697,0
60.44,0.5166835187057635,0.4618540720868244,-0.5176493956763137,0
60.491,0.5106167846309404,0.3581633673000896,-0.5330980667499263,0
60.542,0.5136501516683519,0.2667835730201215,-0.5484740189022697,0
60.593,0.5166835187057635,0.2341233595011053,-0.5637862186802622,0
60.643,0.5116279069767442,0.179234629395375,-0.5801893776734388,0
60.694,0.519716885743175,0.1588273965775032,-0.5981483514319463,0
60.755,0.5146612740141557,0.1891364730398154,-0.6171971693355978,0
60.806,0.512639029322548,0.2737533839034469,-0.6369844764198087,0
60.857,0.5227502527805865,0.3288411578807545,-0.6571964164565678,0
60.908,0.5116279069767442,0.3983417837174147,-0.6775002899447289,0
60.959,0.519716885743175,0.4396046701231873,-0.6975610369931977,0
61.01,0.5085945399393327,0.4620361724372497,-0.7171056342999718,0
61.061,0.5187057633973711,0.5210871158880029,-0.735812947422792,0
61.113,0.5187057633973711,0.5349019704619797,-0.7534796454732543,0
61.164,0.5136501516683519,0.4475355695884815,-0.7698072996411811,0
61.216,0.519716885743175,0.3807190102985059,-0.7846048853992414,0
61.267,0.5096056622851365,0.3193922236518373,-0.7976149542392623,0
61.319,0.5176946410515673,0.2608980800866832,-0.80865007293461,0
61.371,0.5106167846309404,0.2162002468775737,-0.8175408390087305,0
61.422,0.5146612740141557,0.2366608558536689,-0.8234182911235308,0
61.474,0.5176946410515673,0.241109547031371,-0.8250555237467712,0
61.525,0.519716885743175,0.2556323079803168,-0.8227075394240869,0
61.576,0.5217391304347826,0.3235669637017615,-0.8166483766850673,0
61.627,0.5116279069767442,0.3561106877207274,-0.8071602517216927,0
61.678,0.5156723963599595,0.3487356775453507,-0.7944687132782059,0
61.729,0.5156723963599595,0.3727473060380662,-0.7788950345691189,0
61.78,0.5176946410515673,0.4043648621099661,-0.7606565715646749,0
61.83,0.5146612740141557,0.3992455589069734,-0.7400334128094741,0
61.88,0.5187057633973711,0.4440399326060691,-0.717277971407482,0
61.931,0.5187057633973711,0.4927526097518632,-0.692653090439393,0
61.982,0.5146612740141557,0.4545332647097228,-0.6664199691534534,0
62.032,0.5187057633973711,0.368190910827209,-0.6388390029912652,0
62.083,0.5136501516683519,0.2982513607457888,-0.6102832386760886,0
62.135,0.5187057633973711,0.2664882995465928,-0.5809214624671775,0
62.187,0.5136501516683519,0.2231016374784474,-0.5510079665276499,0
62.238,0.5207280080889788,0.2175128132979625,-0.5207320420164547,0
62.29,0.5156723963599595,0.2068077506797254,-0.4903230872899278,0
62.34,0.5176946410515673,0.2098757197662644,-0.4600362776368867,0
62.392,0.519716885743175,0.2184505654725416,-0.4301154443772579,0
62.443,0.5176946410515673,0.2612561120596769,-0.4008120043550753,0
62.495,0.5409504550050557,0.303785917870481,-0.3723527269491147,0
62.546,0.5763397371081901,0.3500755142308131,-0.3449980114851632,0
62.597,0.7492416582406471,0.4653200517316148,-0.3189817277209728,0
62.648,0.9989888776541962,0.583184737243353,-0.294552207436126,0
62.699,1.0,0.6419346217375221,-0.2719501823351651,0
62.75,1.0,0.6998366855626019,-0.2513986131551027,0
62.802,0.7350859453993933,0.7026443190103564,-0.2331540905799634,0
62.853,0.2891809908998989,0.6263728254048061,-0.2174466757257331,0
62.903,0.2406471183013144,0.5055070249717267,-0.2045212039703681,0
62.955,0.2659251769464105,0.410927307725882,-0.1946025607157091,0
63.005,0.0,0.3025637517225697,-0.187974103843596,0
63.056,0.0,0.1616562620946953,-0.1852467978376271,0
63.106,0.2517694641051567,0.0527394023385507,-0.1865636013393103,0
63.157,0.5904954499494439,0.0118194919394851,-0.192061586483996,0
63.208,0.5925176946410516,0.021556490192649,-0.2018877272825459,0
63.258,0.5136501516683519,0.0590817993717065,-0.2147995539129865,0
63.309,0.4833164812942366,0.083708419230696,-0.2298652862631767,0
63.359,0.4994944388270981,0.1302692779879124,-0.2468552955444529,0
63.41,0.5096056622851365,0.2532975874531488,-0.2654629562216557,0
63.462,0.5146612740141557,0.4572265071925382,-0.2853628709260352,0
63.513,0.5146612740141557,0.578810285180771,-0.3062457703353454,0
63.565,0.5106167846309404,0.6288448202967671,-0.3278246744967723,0
63.616,0.5156723963599595,0.6511860790265214,-0.3497360633732891,0
63.667,0.5106167846309404,0.6299393191744748,-0.3717027094105343,0
63.718,0.5146612740141557,0.5659962641675919,-0.3933065150482797,0
63.77,0.5116279069767442,0.4926401588681838,-0.4142096989498796,0
63.821,0.5146612740141557,0.3841011476634303,-0.4339978098406096,0
63.872,0.5166835187057635,0.2807819915269351,-0.4523075412313007,0
63.923,0.5136501516683519,0.1875254029234429,-0.4687342212985701,0
63.974,0.5187057633973711,0.1576328040302866,-0.4828602516864644,0
64.026,0.512639029322548,0.1520828730221146,-0.4951041549104491,0
64.077,0.5187057633973711,0.1820826648479459,-0.5066710284516247,0
64.128,0.5156723963599595,0.2314010038235517,-0.5173409728552294,0
64.178,0.5156723963599595,0.2813522063494783,-0.5269994846598163,0
64.229,0.5156723963599595,0.3069648521893855,-0.5356915856938473,0
64.28,0.5207280080889788,0.3107024859473047,-0.5435014112941932,0
64.332,0.5207280080889788,0.3666166836189361,-0.5504681642558604,0
64.382,0.5146612740141557,0.4188556788201838,-0.5566753931008983,0
64.433,0.5176946410515673,0.4206445349880096,-0.5621721505220254,0
64.484,0.5156723963599595,0.4235787550715256,-0.5670431551238262,0
64.534,0.519716885743175,0.4357511664340521,-0.5713635422718706,0
64.585,0.5146612740141557,0.4429972512556744,-0.5751826923323338,0
64.635,0.519716885743175,0.406476975716786,-0.5785785372618437,0
64.686,0.5136501516683519,0.3719706610498653,-0.5816175950727023,0
64.737,0.5187057633973711,0.3114260829475265,-0.5843703586209525,0
64.788,0.5176946410515673,0.2752189618005964,-0.5869257618668717,0
64.84,0.5156723963599595,0.2743541513130326,-0.5893383777641199,0
64.89,0.5156723963599595,0.269268139790883,-0.5916914046647603,0
64.941,0.5166835187057635,0.2612920676773707,-0.5940495254483056,0
64.992,0.5187057633973711,0.2705958739817362,-0.596479579925888,0
65.044,0.5156723963599595,0.2509949646839413,-0.5990720812315082,0
65.095,0.5187057633973711,0.2606706136654506,-0.6019041801230396,0
65.147,0.5146612740141557,0.3033461036900108,-0.6050504184346284,0
65.198,0.5176946410515673,0.3395252967256059,-0.6088224974676157,0
65.25,0.5146612740141557,0.3490570775382049,-0.6150618318275423,0
65.301,0.5156723963599595,0.3792915908132825,-0.6234529027642126,0
65.352,0.519716885743175,0.4103367122852139,-0.6338679270298249,0
65.403,0.5156723963599595,0.4608490141284153,-0.6457054879589623,0
65.453,0.519716885743175,0.4535127141819314,-0.6586404942904862,0
65.504,0.5146612740141557,0.4593006949856718,-0.6724619215536674,0
65.555,0.5187057633973711,0.4496628784127283,-0.686882400891853,0
65.607,0.5156723963599595,0.421800051296623,-0.7016383573397784,0
65.658,0.5187057633973711,0.3664086218595671,-0.7160213603655765,0
65.71,0.5156723963599595,0.3148956151596023,-0.7296914343430281,0
65.761,0.5156723963599595,0.2703686332775758,-0.7423638507982322,0
65.811,0.519716885743175,0.2391307748311832,-0.7538013859458796,0
65.862,0.5146612740141557,0.2155689876566785,-0.7636746337826045,0
65.913,0.5187057633973711,0.220259116852604,-0.7717825918780166,0
65.963,0.5156723963599595,0.2446819205562259,-0.7778980360089459,0
66.014,0.519716885743175,0.2659740166655499,-0.7810308949812764,0
66.064,0.5156723963599595,0.2934263044946893,-0.7799232145580156,0
66.115,0.5207280080889788,0.3186742185879048,-0.7748011939588582,0
66.166,0.5146612740141557,0.3269827500997392,-0.7658946542788388,0
66.217,0.5166835187057635,0.3593759387023274,-0.7534171313710487,0
66.269,0.5146612740141557,0.3795881757309436,-0.737587346260097,0
66.319,0.5176946410515673,0.4118752778330932,-0.718621337045606,0
66.37,0.5176946410515673,0.4739053059645978,-0.6967267298315178,0
66.42,0.5166835187057635,0.534460561481818,-0.6721215982892879,0
66.472,0.519716885743175,0.503961257927402,-0.6450204461914162,0
66.523,0.5166835187057635,0.4291029795583195,-0.6156156331439009,0
66.575,0.519716885743175,0.3517226653743683,-0.5841118456383345,0
66.633,0.5146612740141557,0.3001397438107096,-0.5507168961056652,0
66.684,0.5146612740141557,0.2575084385334139,-0.515628852131423,0
66.734,0.519716885743175,0.2378018756761527,-0.4793038610423255,0
66.786,0.5146612740141557,0.1999958730946976,-0.4421510188787507,0
66.837,0.5176946410515673,0.1654164808813109,-0.4044446218593045,0
66.889,0.5146612740141557,0.1517637422635132,-0.3664595636977905,0
66.941,0.5166835187057635,0.1905143443050479,-0.3284859374593911,0
66.992,0.5247724974721941,0.2395794091627348,-0.2907911714147024,0
67.043,0.525783619817998,0.2572597629320688,-0.2536591027507833,0
67.095,0.5652173913043479,0.3476738836118813,-0.2173522085527561,0
67.145,0.5915065722952477,0.4511507105797948,-0.1821451997961649,0
67.196,0.6046511627906977,0.5248676938400133,-0.1483218137300941,0
67.247,0.903943377148635,0.6290804065993261,-0.1161651315705971,0
67.297,1.0,0.6501236436271689,-0.0859367182894625,0
67.348,0.903943377148635,0.6025420887024522,-0.0579218083883403,0
67.399,0.60262891809909,0.5678092566065096,-0.0323902321876892,0
67.449,0.0,0.569332347537583,-0.0096341848451801,0
67.5,0.0,0.4524923035482004,0.0100740988493128,0
67.551,0.0,0.2350077251270637,0.0264485431746082,0
67.602,0.4307381193124368,0.0565001761678753,0.0392432278415579,0
67.654,0.6481294236602629,0.0089245553100159,0.0481492609164093,0
67.705,0.5763397371081901,0.0124141377519533,0.0528781569964884,0
67.755,0.4984833164812942,0.0411234390052351,0.0531568348603126,0
67.807,0.4863498483316481,0.0664165421135675,0.0491120666447422,0
67.859,0.5075834175935289,0.0883443992141967,0.0427726660421832,0
67.91,0.5187057633973711,0.2160403640743414,0.0343128720124721,0
67.961,0.5166835187057635,0.446387575614316,0.0241561841932027,0
68.012,0.5156723963599595,0.5926600627344459,0.012243616738969,0
68.063,0.5136501516683519,0.6616372378455094,-0.0012616364350988,0
68.115,0.5166835187057635,0.6879313287934388,-0.0160641520164512,0
68.167,0.5146612740141557,0.6458759198518829,-0.0319564183145828,0
68.218,0.5166835187057635,0.5684697529775039,-0.0486387942785715,0
68.269,0.5136501516683519,0.4819466610779851,-0.0658163690179376,0
68.32,0.5146612740141557,0.3402758863913689,-0.0832369994780659,0
68.372,0.5176946410515673,0.2339249871736168,-0.1005754850448417,0
68.423,0.5156723963599595,0.1663943309381244,-0.1174689106701127,0
68.474,0.5176946410515673,0.1411497447794312,-0.1336377714823515,0
68.524,0.5146612740141557,0.1301017642066526,-0.148667916216808,0
68.575,0.5176946410515673,0.1547304447158413,-0.1621906606362957,0
68.626,0.5156723963599595,0.1910788787699346,-0.1747320238702234,0
68.677,0.5176946410515673,0.2196608136404909,-0.1875365111734379,0
68.727,0.5156723963599595,0.2360424241168247,-0.2006040598099372,0
68.778,0.5166835187057635,0.2597937217374871,-0.2139470363336013,0
68.828,0.5146612740141557,0.2917343070369104,-0.2275683064947662,0
68.885,0.5187057633973711,0.3628674645680517,-0.2414844700262997,0
68.936,0.5308392315470172,0.4006984677538161,-0.2556893384582719,0
68.987,0.5753286147623863,0.4628047116239862,-0.2701941828757741,0
69.038,0.6238624873609707,0.5475881208649457,-0.2849858144595254,0
69.089,0.9989888776541962,0.6395491788277584,-0.3000694088725137,0
69.141,0.7421638018200203,0.5832388887463532,-0.3154574938504042,0
69.192,0.2568250758341759,0.468553351510434,-0.331252983234042,0
69.244,0.1061678463094034,0.3681639414723071,-0.3476198081074808,0
69.295,0.3700707785642063,0.2786811309297597,-0.3644873561491708,0
69.346,0.5419615773508595,0.2146130429574484,-0.3817942674599208,0
69.397,0.5480283114256825,0.1988077542931823,-0.3994756132148964,0
69.448,0.5035389282103134,0.1685165127911052,-0.4174785155177587,0
69.499,0.4954499494438827,0.1478755381564728,-0.4357368503325867,0
69.551,0.506572295247725,0.1851475061887825,-0.4541827641392351,0
69.602,0.5116279069767442,0.2202387772126708,-0.4727591496534036,0
69.654,0.5156723963599595,0.251262737909077,-0.4914016192223056,0
69.705,0.5116279069767442,0.3283751169430612,-0.51005864780083,0
69.756,0.5136501516683519,0.3821737728842455,-0.5286626656981497,0
69.808,0.5116279069767442,0.411644319023325,-0.5471613725813083,0
69.858,0.5136501516683519,0.4268731363548544,-0.565491577563545,0
69.909,0.5166835187057635,0.4595297038935476,-0.5836043631842875,0
69.959,0.5146612740141557,0.4096741075160323,-0.6014495243477902,0
70.01,0.5166835187057635,0.3456586916330544,-0.6189695755898175,0
70.06,0.5176946410515673,0.3089486589336875,-0.6361052507974916,0
70.111,0.5217391304347826,0.2651762889059508,-0.6528736769797618,0
70.161,0.519716885743175,0.2285682764140922,-0.6692966101029867,0
70.212,0.5247724974721941,0.2303166332952169,-0.6853433191824554,0
70.263,0.5439838220424672,0.2365382808441654,-0.7008996288348783,0
70.315,0.570273003033367,0.2534009235557057,-0.7158897622224838,0
70.366,0.6076845298281093,0.3088584537449294,-0.7302395189604485,0
70.417,0.7158746208291203,0.3465404884977708,-0.7440242314584947,0
70.468,0.9150657229524772,0.3597825369821911,-0.7572904774122479,0
70.519,0.8412537917087968,0.4308673591765982,-0.7700053458213235,0
70.571,0.5662285136501517,0.5002648742505137,-0.7821609363372846,0
70.622,0.4378159757330637,0.5135800255040617,-0.7937296648308183,0
70.673,0.4307381193124368,0.5289298793469421,-0.8046998843750148,0
70.723,0.4823053589484328,0.6268420766376778,-0.8150629277834285,0
70.774,0.4368048533872599,0.6118119192280033,-0.8248139843160038,0
70.825,0.320525783619818,0.4514143061304335,-0.8339513791995724,0
70.875,0.4903943377148635,0.2178484620488768,-0.8424898621275562,0
70.926,0.9949443882709808,0.0884212895737114,-0.8540814988151085,0
70.977,0.3164812942366026,0.0730032338760622,-0.8683313076438999,0
71.029,0.0414560161779575,0.1120156908541307,-0.8843663079204377,0
71.08,0.3993933265925177,0.1414285120359663,-0.901453028787394,0
71.131,0.570273003033367,0.155393122578439,-0.9189830760914746,0
71.182,0.3741152679474216,0.1990992353221986,-0.9361841133779892,0
71.232,0.3195146612740142,0.3116659936448461,-0.9524445427172662,0
71.283,0.4378159757330637,0.3666717018298585,-0.9670924846098652,0
71.334,0.5227502527805865,0.4013753643619535,-0.979682712542394,0
71.384,0.5308392315470172,0.4153053377805539,-0.9896932008499482,0
71.435,0.512639029322548,0.3982062054025591,-0.996584181418692,0
71.486,0.5035389282103134,0.3665579952369943,-1.0,0
71.537,0.5085945399393327,0.3291989295223595,-0.99947456711406,0
71.588,0.512639029322548,0.2779076340585205,-0.9947376045870688,0
71.64,0.5136501516683519,0.2694713249663926,-0.9853988677659764,0
71.691,0.5146612740141557,0.2972803970326794,-0.9674674279892558,0
71.743,0.5136501516683519,0.3304074988913118,-0.9403558095733972,0
71.794,0.512639029322548,0.3794833468273713,-0.904692860730732,0
71.844,0.512639029322548,0.4213007003108825,-0.8610133596672723,0
71.896,0.5136501516683519,0.3962878881471696,-0.8099791010158719,0
71.947,0.512639029322548,0.3794073369348151,-0.7523065029339183,0
71.998,0.5156723963599595,0.3470395246967381,-0.688683547369157,0
72.049,0.5156723963599595,0.3159224126029369,-0.6197659227015944,0
72.101,0.5166835187057635,0.3607597903440649,-0.5462555525209765,0
72.153,0.5176946410515673,0.3932831537467931,-0.4688184376606081,0
72.204,0.5166835187057635,0.3854160251397093,-0.3880882853860565,0
72.256,0.5166835187057635,0.3636820718863941,-0.3047450381726275,0
72.307,0.5166835187057635,0.3228802454442195,-0.2194122355014263,0
72.358,0.5156723963599595,0.2956472522693204,-0.1327559406204586,0
72.41,0.5176946410515673,0.2385766558593829,-0.0453812906615049,0
72.461,0.5176946410515673,0.2234424568921252,0.0420648651559389,0
72.512,0.5176946410515673,0.2204273486910629,0.1289883373331759,0
72.562,0.5156723963599595,0.2107754909200153,0.2147615225097727,0
72.613,0.5166835187057635,0.1941009182930488,0.2987602501751549,0
72.664,0.5187057633973711,0.2190844909417218,0.3804165786612659,0
72.714,0.5278058645096056,0.2699392616902837,0.4592000128616496,0
72.765,0.6157735085945399,0.2835331667942234,0.5346829528237707,0
72.815,0.6481294236602629,0.3816596601514212,0.6063089237415693,0
72.866,0.9989888776541962,0.4936537297808664,0.6735752472836247,0
72.916,1.0,0.5352510388164403,0.7359628932957865,0
72.967,1.0,0.6189251486461136,0.7929400439631409,0
73.017,1.0,0.645235226460213,0.8440507492420681,0
73.068,0.5227502527805865,0.621935323063725,0.8887758828890759,0
73.118,0.1203235591506572,0.5577309348030867,0.9266314001081372,0
73.17,0.0980788675429727,0.5806009233186677,0.957141981612562,0
73.221,0.1263902932254803,0.4752505627610103,0.9798384096337442,0
73.272,0.358948432760364,0.2437780378737327,0.9942828274621652,0
73.324,0.4448938321536906,0.0768694010367989,1.0,0
73.375,0.2750252780586451,0.0208127275066382,0.9965481825379796,0
73.426,0.3377148634984833,0.0267724677658379,0.983493322943827,0
73.478,0.4398382204246714,0.0539187589506868,0.960410652721158,0
73.529,0.4671385237613751,0.0798571822649721,0.9313311329186926,0
73.581,0.4752275025278059,0.1103478092432375,0.8970891176808888,0
73.632,0.4954499494438827,0.1800843216338019,0.8581249520473717,0
73.684,0.4903943377148635,0.3029281200068248,0.8149765929197681,0
73.735,0.5096056622851365,0.3921569734048484,0.7683618340729317,0
73.787,0.512639029322548,0.4617131202327327,0.7188472448408589,0
73.838,0.5055611729019212,0.5148673628929689,0.667117486657312,0
73.888,0.512639029322548,0.547938546794561,0.6138064450730436,0
73.939,0.5116279069767442,0.5474717413789281,0.5597581427725249,0
73.989,0.5146612740141557,0.5288311161856127,0.5057823441389644,0
74.04,0.5106167846309404,0.4545425034667885,0.4526175574348032,0
74.09,0.5136501516683519,0.3737237138917509,0.4012576552479201,0
74.141,0.5075834175935289,0.3079525958533859,0.3525241577392717,0
74.192,0.5136501516683519,0.26566620919697,0.3074939493952509,0
74.242,0.5166835187057635,0.2458943205378662,0.2670920425130889,0
74.294,0.5227502527805865,0.2641458519672505,0.2278275257318487,0
74.345,0.5156723963599595,0.2721594301351099,0.1886053452244107,0
74.396,0.5116279069767442,0.2625335519793659,0.1493843663635758,0
74.447,0.5156723963599595,0.2240637871523619,0.1102140830572613,0
74.498,0.5146612740141557,0.2235197015936457,0.0710284395726275,0
74.55,0.5176946410515673,0.2454852921975168,0.0311131846296612,0
74.601,0.5146612740141557,0.2566423176361099,-0.0111390988464357,0
74.652,0.5166835187057635,0.2693831567642133,-0.0552640331116107,0
74.703,0.5146612740141557,0.3116400377366297,-0.1007377182705657,0
74.754,0.5156723963599595,0.3267127532933171,-0.147078450402174,0
74.805,0.5187057633973711,0.3243093063161174,-0.1938511624273609,0
74.856,0.5166835187057635,0.3730230045024352,-0.2406268695073643,0
74.907,0.519716885743175,0.4906167303135479,-0.2869783511387485,0
74.957,0.5156723963599595,0.6286159630702076,-0.3324908860587134,0
75.008,0.5176946410515673,0.7043428597886656,-0.3768168700842706,0
75.059,0.5146612740141557,0.6559203217808424,-0.4195555938815116,0
75.11,0.519716885743175,0.4769027482338414,-0.4607347548969922,0
75.161,0.5207280080889788,0.3060245660331682,-0.4996394072855372,0
75.212,0.5187057633973711,0.1970373762911227,-0.5359973397744089,0
75.263,0.5136501516683519,0.1480255614125166,-0.5695376796274376,0
75.313,0.5247724974721941,0.1569769626467902,-0.5994710260244485,0
75.364,0.5227502527805865,0.1676029867011256,-0.6249235797019577,0
75.414,0.519716885743175,0.1663354498795395,-0.6459363695840112,0
75.465,0.5237613751263903,0.1545753486821043,-0.6626227893439924,0
75.516,0.5227502527805865,0.1630440127365791,-0.6750830479331509,0
75.566,0.5379170879676441,0.1769996813891692,-0.6834087149117902,0
75.617,0.5581395348837209,0.2352020681947449,-0.6877653954234402,0
75.667,0.6006066734074823,0.3062647951682397,-0.6882692688968499,0
75.718,0.878665318503539,0.3566931405466909,-0.6850664840708278,0
75.768,1.0,0.4029443759445955,-0.6783099016803882,0
75.819,0.9989888776541962,0.5256042092586027,-0.668159701793289,0
75.869,1.0,0.6376584778518577,-0.6548144902215249,0
75.92,0.8008088978766431,0.6736821632398764,-0.6384377419942158,0
75.971,0.3660262891809909,0.7006190364532396,-0.6192235087870799,0
76.022,0.2133468149646107,0.7464578088120787,-0.5973759386846784,0
76.073,0.378159757330637,0.6830860999985358,-0.5731092761804131,0
76.125,0.5227502527805865,0.4578622331817893,-0.5466478621765265,0
76.176,0.4853387259858443,0.1936179819567699,-0.5182261339841032,0
76.227,0.4175935288169868,0.0728476749311491,-0.4880886253230694,0
76.278,0.3286147623862487,0.0644913517376251,-0.4564678461097675,0
76.328,0.2709807886754297,0.0934144688895048,-0.4236454445552471,0
76.389,0.2942366026289181,0.0903656440672691,-0.3898960932713948,0
76.439,0.2285136501516683,0.098904727087635,-0.3555045612789398,0
76.49,0.3549039433771486,0.1436221427462012,-0.3207713157938836,0
76.54,0.4620829120323559,0.2232221601482884,-0.2859945498293652,0
76.591,0.4954499494438827,0.2667146960057893,-0.2514893692668747,0
76.647,0.4752275025278059,0.3174891036497895,-0.2175560552911044,0
76.698,0.4752275025278059,0.371548242422927,-0.1845474117940875,0
76.749,0.4954499494438827,0.4228514275003932,-0.1527871230391542,0
76.799,0.4994944388270981,0.4312985453529259,-0.122650788660436,0
76.85,0.512639029322548,0.4086440818055215,-0.0945008235699322,0
76.9,0.5015166835187058,0.4029414144684028,-0.0687149032069633,0
76.951,0.512639029322548,0.412926961332696,-0.0457112564745223,0
77.003,0.506572295247725,0.3987515389560015,-0.0258482310095644,0
77.055,0.5096056622851365,0.4119455264166474,-0.0095478289280954,0
77.106,0.5166835187057635,0.4408610429611778,0.0028072968247583,0
77.157,0.506572295247725,0.4467466626705085,0.0117025549925502,0
77.208,0.519716885743175,0.426810316716619,0.0190284846912902,0
77.259,0.5116279069767442,0.4088124135620503,0.0249576044892236,0
77.31,0.5207280080889788,0.3445199592295594,0.0296441064005017,0
77.361,0.5015166835187058,0.3082133414392435,0.0332534495808027,0
77.412,0.5146612740141557,0.3113064974970382,0.0359623603273275,0
77.463,0.5156723963599595,0.2974889881070667,0.0379948427747476,0
77.514,0.512639029322548,0.2713256886978181,0.0395135894691587,0
77.566,0.519716885743175,0.2476305454380403,0.0407381111786908,0
77.617,0.5106167846309404,0.2412228903599476,0.041843424061791,0
77.668,0.5217391304347826,0.2256031645729696,0.0430835237242828,0
77.719,0.5146612740141557,0.2352990314687107,0.0450955921194402,0
77.772,0.519716885743175,0.2540077801631659,0.0477973548203838,0
77.823,0.5156723963599595,0.2716680050916656,0.0514950823500348,0
77.874,0.5136501516683519,0.3153755051782288,0.0564247198736609,0
77.925,0.5308392315470172,0.3640888410838721,0.0622259284404149,0
77.975,0.5652173913043479,0.420871263287187,0.0681150379695658,0
78.026,0.6066734074823054,0.4208985125618657,0.0740753279507988,0
78.077,0.9919110212335692,0.4944545102356912,0.0801117088462801,0
78.127,1.0,0.566023359821953,0.0862209342800059,0
78.178,1.0,0.6033964471553197,0.0924092039885848,0
78.229,1.0,0.6241073769276795,0.0986681777071609,0
78.279,0.6966632962588474,0.5944421705725347,0.1049997447130539,0
78.33,0.4024266936299292,0.5407429247168885,0.1114096624268816,0
78.381,0.2537917087967644,0.3901806829441968,0.1178925803146713,0
78.432,0.1648129423660262,0.259212818034071,0.1244401946733322,0
78.483,0.0839231547017189,0.1586477525672022,0.1310582421921933,0
78.534,0.0,0.1181753950201746,0.1377397322597242,0
78.585,0.1658240647118301,0.1117264919569803,0.1444636535366881,0
78.636,0.4883720930232558,0.0893323192614991,0.1514563533487021,0
78.687,0.5581395348837209,0.079398498737822,0.1586953804645423,0
78.738,0.5005055611729019,0.0942245109860238,0.1661299151152846,0
78.791,0.4843276036400404,0.1743907072126208,0.1737117072563083,0
78.842,0.4944388270980789,0.237580189584502,0.181392044178047,0
78.906,0.5055611729019212,0.3043229458530084,0.1891283960704652,0
78.957,0.5116279069767442,0.3695707435694676,0.1968736723816957,0
79.007,0.5116279069767442,0.5425793492858431,0.2045861531773904,0
79.059,0.506572295247725,0.5713519699089901,0.2122236558582568,0
79.109,0.5116279069767442,0.4287073732790075,0.2197535889542881,0
79.161,0.5166835187057635,0.4095669101849796,0.2271335601080779,0
79.213,0.5136501516683519,0.4657402007779526,0.2343263160837054,0
79.264,0.5187057633973711,0.3893674314452177,0.2412992686355997,0
79.316,0.512639029322548,0.3338533823056038,0.2480138713945203,0
79.367,0.5187057633973711,0.2928559007987853,0.2544416880726126,0
79.418,0.5136501516683519,0.2766126215585315,0.2605540512131112,0
79.468,0.5176946410515673,0.2370427559860002,0.2663174773042622,0
79.519,0.5207280080889788,0.1986205262859801,0.2717386123374115,0
79.57,0.5176946410515673,0.1813874311305244,0.2768193947060005,0
79.62,0.525783619817998,0.1988141760716911,0.2815408808101058,0
79.671,0.5227502527805865,0.2508553874738708,0.2858961697212794,0
79.723,0.538928210313448,0.2648766539324446,0.2898755741625778,0
79.773,0.5581395348837209,0.3366159833787365,0.2934779997291272,0
79.824,0.7755308392315471,0.4019294061334161,0.2966897181633587,0
79.88,1.0,0.450775441498315,0.2995070286980654,0
79.931,1.0,0.5591328559162141,0.301927262155818,0
79.982,0.8837209302325582,0.6236519646128197,0.3039518133382213,0
80.033,0.5753286147623863,0.6639495171129762,0.305582903691187,0
80.085,0.3569261880687563,0.6366140340987904,0.30682567657098,0
80.136,0.2335692618806875,0.6630153903621162,0.3076939576996986,0
80.187,0.0738119312436804,0.5450273065596716,0.3081906325909473,0
80.238,0.0,0.2544912698288149,0.3083817136871447,0
80.29,0.2477249747219413,0.0523620861137048,0.3082307350012416,0
80.341,0.5136501516683519,0.0,0.3077490171150843,0
80.392,0.538928210313448,0.0004762056813828,0.306961082369638,0
80.444,0.5015166835187058,0.0176919631532223,0.3058764965880307,0
80.495,0.4833164812942366,0.0343880295755648,0.3045248776800386,0
80.548,0.4984833164812942,0.0501171472610473,0.3029313652574372,0
80.599,0.5106167846309404,0.1154349273287052,0.3012321788379499,0
80.65,0.5116279069767442,0.2578026500386083,0.2994785317608626,0
80.702,0.5146612740141557,0.3705089467634671,0.2976750725977939,0
80.752,0.5085945399393327,0.4486743603005295,0.2958097170369052,0
80.803,0.5166835187057635,0.5496931140115018,0.2938796345626762,0
80.854,0.5116279069767442,0.5913645210598084,0.2918891536401431,0
80.904,0.5146612740141557,0.558561042960859,0.2898516903486317,0
80.955,0.5116279069767442,0.5465982079386148,0.2877745308560175,0
81.006,0.5156723963599595,0.4437865524621285,0.2856721203107288,0
81.064,0.5136501516683519,0.3650332064813337,0.2835723878978551,0
81.115,0.5116279069767442,0.2908598006531664,0.281484940073188,0
81.166,0.5176946410515673,0.2522776725136875,0.2794478897102683,0
81.216,0.5166835187057635,0.2157544434390253,0.2775066791189968,0
81.267,0.5176946410515673,0.2185202940105516,0.2754267137558996,0
81.318,0.5207280080889788,0.2024677608940405,0.2731616093937328,0
81.37,0.5176946410515673,0.1850440342666502,0.2706961757903094,0
81.421,0.5176946410515673,0.1576205881981537,0.2680154902611273,0
81.474,0.5156723963599595,0.1574034784407955,0.2651123491394922,0
81.526,0.5187057633973711,0.2098816847813608,0.2619707150682735,0
81.576,0.5176946410515673,0.2423962780804388,0.2585853103817734,0
81.627,0.5146612740141557,0.2764673522851691,0.2549418187783883,0
81.678,0.5207280080889788,0.3358991975960105,0.2510345567515131,0
81.728,0.5318503538928211,0.3903675461236733,0.2468625274230971,0
81.779,0.6127401415571284,0.4249082711064098,0.2424156952791845,0
81.832,1.0,0.5009200246714862,0.2376926576008193,0
81.883,1.0,0.5825867275517688,0.2326901839606843,0
81.933,0.9989888776541962,0.5947808079870721,0.2274106360528385,0
81.986,0.7947421638018201,0.6456737118502405,0.2218559029142084,0
82.037,0.3609706774519717,0.654182730560134,0.216036569390204,0
82.088,0.2780586450960566,0.5721469000524736,0.2099492629372215,0
82.138,0.282103134479272,0.4270870717870412,0.203599252091025,0
82.189,0.1132457027300303,0.3198773617039868,0.1969899540857087,0
82.24,0.0657229524772497,0.2283957239694811,0.190136660118156,0
82.29,0.3700707785642063,0.1227410120365109,0.1830488639171337,0
82.341,0.5379170879676441,0.0487339844647768,0.1757342079097401,0
82.391,0.5318503538928211,0.0256735110462346,0.1682030076398055,0
82.443,0.5025278058645096,0.0310034945429718,0.1604722648893766,0
82.494,0.4863498483316481,0.0692956182617808,0.1528732197454063,0
82.546,0.5005055611729019,0.0944740143219751,0.1455805850343752,0
82.597,0.5085945399393327,0.1396988368331325,0.1385042726249661,0
82.648,0.5075834175935289,0.2758591116347264,0.1315610717040487,0
82.699,0.5136501516683519,0.4631909598837647,0.1246725535106314,0
82.751,0.506572295247725,0.600832587603674,0.1177683086705896,0
82.802,0.512639029322548,0.6396914302394319,0.1107952386143935,0
82.854,0.5116279069767442,0.6590116442174183,0.1036622825565698,0
82.905,0.512639029322548,0.6286899121179768,0.0963503726526295,0
82.956,0.5136501516683519,0.5466294130719198,0.0887932510762923,0
83.008,0.5116279069767442,0.421635425033781,0.080978580399379,0
83.059,0.5176946410515673,0.3062179200413303,0.0728365160423276,0
83.11,0.512639029322548,0.239580805548943,0.0643512724588448,0
83.161,0.5156723963599595,0.1624631702693047,0.0554793465017899,0
83.212,0.512639029322548,0.1236717683750784,0.0460619839773677,0
83.263,0.5176946410515673,0.1023210012035343,0.0360211524622242,0
83.316,0.5166835187057635,0.1305456652768652,0.0252805512284715,0
83.367,0.5176946410515673,0.1521218161654746,0.0138090155981762,0
83.418,0.5237613751263903,0.1759958553129292,0.0016007151740593,0
83.468,0.5207280080889788,0.2145040488045271,-0.0114051274591464,0
83.519,0.5298281092012134,0.2340375064521979,-0.025253115348506,0
83.57,0.5399393326592518,0.2760273904026564,-0.0399468282137083,0
83.62,0.5743174924165825,0.3723034219437452,-0.0554979984203152,0
83.671,0.6147623862487361,0.4757227276659545,-0.0719377740515208,0
83.721,1.0,0.5704864106931073,-0.0892511519605547,0
83.772,1.0,0.6606586690839638,-0.1074508436452885,0
83.823,1.0,0.7303208857968224,-0.1265461498086471,0
83.874,0.8240647118301315,0.6590694736978457,-0.1465335279980699,0
83.925,0.4580384226491406,0.5702572753446785,-0.1673664913898493,0
83.976,0.3468149646107179,0.4559853906547452,-0.1890629665601582,0
84.027,0.1840242669362993,0.29151523249315,-0.211586275840274,0
84.079,0.0,0.1958987943618279,-0.2351599314080685,0
84.129,0.0,0.1685829889790349,-0.262103979274044,0
84.181,0.1263902932254803,0.1144689652099215,-0.2918795443804962,0
84.232,0.5530839231547018,0.0770435581818602,-0.3238742117175097,0
84.285,0.6046511627906977,0.0902366206048787,-0.3575802725992387,0
84.336,0.5176946410515673,0.124189822327117,-0.3924309124838097,0
84.388,0.4772497472194135,0.1251231752146313,-0.4279505028344255,0
84.439,0.4924165824064712,0.1625093308700037,-0.4636033954810714,0
84.49,0.5085945399393327,0.2238681727878964,-0.4989172096780401,0
84.542,0.5136501516683519,0.2814940472047027,-0.5334375356310523,0
84.593,0.5106167846309404,0.3231675825433648,-0.5666907097228928,0
84.644,0.5116279069767442,0.3820112638928877,-0.5983134998030011,0
84.697,0.512639029322548,0.4211315275149842,-0.62785951103782,0
84.748,0.512639029322548,0.4147772012824513,-0.6549909525060633,0
84.798,0.5156723963599595,0.4264245731135646,-0.6793748046367583,0
84.849,0.5136501516683519,0.419356604597015,-0.7004678679594936,0
84.9,0.5166835187057635,0.3878137658013117,-0.7166656722734301,0
84.95,0.5156723963599595,0.3525167856042291,-0.727947139203108,0
85.001,0.5136501516683519,0.3230572372226951,-0.7343248739370218,0
85.052,0.5146612740141557,0.2975590581447594,-0.7357887476972633,0
85.102,0.5156723963599595,0.285874390995132,-0.7327396935398636,0
85.152,0.5156723963599595,0.3044236211290327,-0.7255221909385976,0
85.204,0.5156723963599595,0.3124609722861865,-0.7142888372538703,0
85.254,0.5176946410515673,0.3355744193806933,-0.6991918875111083,0
85.305,0.5156723963599595,0.3607198928848466,-0.6804021753438758,0
85.356,0.5176946410515673,0.4251104953484749,-0.6580817295192407,0
85.407,0.5166835187057635,0.4320071335829379,-0.6324308031804862,0
85.459,0.5187057633973711,0.4190583130222193,-0.603618138328601,0
85.51,0.5176946410515673,0.3642029064490935,-0.5718598507580299,0
85.562,0.5176946410515673,0.3119353820675736,-0.5373644152361616,0
85.613,0.5176946410515673,0.2896087815960064,-0.5003901782997422,0
85.665,0.5166835187057635,0.2022244844081185,-0.461132405460664,0
85.716,0.5176946410515673,0.1370518110007841,-0.4198537620665783,0
85.767,0.5166835187057635,0.1110218275995901,-0.376803124788299,0
85.818,0.519716885743175,0.116754539953475,-0.3322351168711845,0
85.868,0.5176946410515673,0.1282182397471961,-0.2864595835773091,0
85.919,0.5176946410515673,0.2099480499982014,-0.2397263496516126,0
85.969,0.5227502527805865,0.3074201346189915,-0.1923391415564945,0
86.02,0.5793731041456016,0.3633452550748872,-0.1446283983962344,0
86.072,0.9919110212335692,0.4697837713977759,-0.0968888617248948,0
86.123,0.9989888776541962,0.6052676337335773,-0.0494263837556423,0
86.174,1.0,0.7569449201092799,-0.0025806197993429,0
86.224,1.0,0.8078189259628901,0.0432945069868153,0
86.275,0.6491405460060667,0.8290983776400486,0.0878717459325184,0
86.325,0.3761375126390293,0.6503952011142821,0.1307626597951123,0
86.376,0.1678463094034378,0.3741628273439089,0.1715937776854219,0
86.426,0.0,0.1674577717883543,0.2100079153670055,0
86.477,0.0,0.0753362205418445,0.2456044970740005,0
86.528,0.1001011122345803,0.045615654867312,0.2779478236435873,0
86.58,0.5561172901921133,0.0657299829661673,0.3066654012916947,0
86.631,0.6400404448938322,0.0660100720287453,0.3313089256434165,0
86.682,0.5409504550050557,0.0593023551019567,0.3522791913703629,0
86.734,0.4883720930232558,0.0966450468882973,0.372096157584775,0
86.784,0.4843276036400404,0.1502497172591762,0.3908173598027109,0
86.835,0.5106167846309404,0.1889472913359469,0.4084447634093306,0
86.886,0.5035389282103134,0.2583794025255667,0.4250719176459041,0
86.936,0.5156723963599595,0.362439985964043,0.4407368016227999,0
86.986,0.5055611729019212,0.4870878802262424,0.4555769201347255,0
87.037,0.5116279069767442,0.5444871690227429,0.4696566696414832,0
87.087,0.5136501516683519,0.5335859861495202,0.4831003688085467,0
87.139,0.5146612740141557,0.4820761078165331,0.4960502017785333,0
87.189,0.5187057633973711,0.4448597444265083,0.5086209216983217,0
87.24,0.512639029322548,0.4065015880468604,0.5210233809878684,0
87.29,0.5237613751263903,0.3356422754857183,0.5334125453990337,0
87.341,0.5187057633973711,0.2843094386496763,0.5460425898308152,0
87.392,0.5278058645096056,0.2615927613446965,0.5591888281699937,0
87.442,0.512639029322548,0.2018254494531728,0.5728693811789509,0
87.493,0.5156723963599595,0.1773521715308095,0.5857246981549946,0
87.543,0.5085945399393327,0.1584382312770512,0.5976981866917979,0
87.594,0.5207280080889788,0.1728620456048973,0.6087575262791156,0
87.645,0.5096056622851365,0.1979234504136843,0.6188568989940104,0
87.695,0.5409504550050557,0.2332176419201772,0.6279707878955105,0
87.746,0.571284125379171,0.2980906636225938,0.6360729186460685,0
87.797,0.596562184024267,0.3608659274650797,0.6431476877480522,0
87.847,0.7684529828109201,0.4447635965785325,0.6491812120794362,0
87.898,0.9989888776541962,0.5371688503515412,0.6541754178827612,0
87.948,1.0,0.5918458901919978,0.6581148356512148,0
87.999,0.9474216380182002,0.6286849574671136,0.6610067236193844,0
88.049,0.7269969666329626,0.6533363243304375,0.6628653465181453,0
88.1,0.5358948432760364,0.6783275354848126,0.6636899275109953,0
88.15,0.5096056622851365,0.6344261965741407,0.6635076648123301,0
88.201,0.6016177957532862,0.5623975139533189,0.6623386741438746,0
88.253,0.480283114256825,0.4129644610343446,0.6602068780256407,0
88.304,0.0,0.2464866484172422,0.6571412821713047,0
88.355,0.0,0.1788529503958854,0.6531953981836494,0
88.406,0.0,0.1244589972222524,0.6484004373844834,0
88.457,0.0,0.0520620755994612,0.6428310379278419,0
88.507,0.4691607684529828,0.0267621220346269,0.636524660235239,0
88.558,0.6501516683518705,0.038671290482511,0.6295515717332498,0
88.61,0.5672396359959555,0.0747503546913032,0.6219645715216422,0
88.662,0.4823053589484328,0.0925199361432707,0.6138494996982664,0
88.713,0.4843276036400404,0.1580793153886294,0.6052802819141414,0
88.764,0.5085945399393327,0.2562763133419213,0.5963346506185694,0
88.815,0.5146612740141557,0.3716414812923594,0.5871097782027714,0
88.866,0.5166835187057635,0.4916209246090339,0.5776893396452745,0
88.917,0.5096056622851365,0.5326358861391035,0.5681773109065751,0
88.967,0.512639029322548,0.531612932286246,0.5586833254706147,0
89.019,0.5085945399393327,0.4994756267014625,0.5494357312731437,0
89.07,0.5136501516683519,0.4687941657119823,0.5405391405881868,0
89.121,0.5085945399393327,0.413664174986366,0.5320941236802579,0
89.172,0.512639029322548,0.3609630522982837,0.5241892675610389,0
89.222,0.5136501516683519,0.3512903446145434,0.5169318773027518,0
89.273,0.512639029322548,0.293402066977702,0.5097853004792947,0
89.323,0.5176946410515673,0.2805173008783393,0.5026207466884118,0
89.374,0.5146612740141557,0.3028006163296908,0.4954282941424535,0
89.425,0.5146612740141557,0.3541552093764775,0.4881822310026562,0
89.475,0.5136501516683519,0.3619582287215336,0.4808736264281572,0
89.526,0.5187057633973711,0.3639457010987805,0.4734710510782594,0
89.576,0.5166835187057635,0.3451547504568309,0.4659516598154116,0
89.627,0.5187057633973711,0.2944566092657334,0.4583025887511089,0
89.677,0.5146612740141557,0.2965874737445287,0.4505082152297666,0
89.728,0.519716885743175,0.2557415664708896,0.4425608947254296,0
89.779,0.519716885743175,0.1911712798091195,0.4344392533143093,0
89.83,0.5227502527805865,0.1505433405465219,0.4261429602525601,0
89.88,0.5187057633973711,0.1416867008444058,0.4176491862965044,0
89.931,0.5207280080889788,0.1584829877969709,0.4089436864056059,0
89.981,0.5187057633973711,0.2173192017261443,0.4000173648342113,0
90.032,0.5166835187057635,0.2814287451707088,0.3908671361715936,0
90.083,0.5338725985844287,0.3065075841321812,0.3814939222225368,0
90.134,0.5753286147623863,0.3797365986315372,0.3718849153939936,0
90.184,0.9989888776541962,0.4968558588741458,0.3620367533361093,0
90.235,1.0,0.6580763307645797,0.3519540518286579,0
90.286,1.0,0.7725292645776611,0.3416325292077444,0
90.336,0.9696663296258848,0.8356028426093882,0.331063747996501,0
90.387,0.5045500505561173,0.7230532257901405,0.3202532228812185,0
90.438,0.2669362992922143,0.5350950855578348,0.30919694379853,0
90.488,0.2507583417593529,0.3554725899980244,0.2979070543769828,0
90.539,0.2062689585439838,0.1733362939723674,0.2863867432675904,0
90.589,0.0,0.1055441177812582,0.2746465837112799,0
90.64,0.0687563195146612,0.0996420539179088,0.2626989308681404,0
90.691,0.4428715874620829,0.0621730489185129,0.2505485829433029,0
90.743,0.571284125379171,0.0540804259344697,0.2382055212030516,0
90.794,0.5308392315470172,0.0665861773501262,0.2256857710148756,0
90.845,0.4944388270980789,0.1081100851688247,0.212997800791304,0
90.896,0.4903943377148635,0.1383496353671604,0.2001600939601844,0
90.947,0.5075834175935289,0.1818198059819594,0.1871835769944034,0
90.999,0.5106167846309404,0.2546422892666066,0.1743031532776175,0
91.05,0.5106167846309404,0.3437309673530385,0.1616227153800042,0
91.102,0.5116279069767442,0.4182091445623647,0.1490632359679748,0
91.153,0.5116279069767442,0.4464730293888228,0.136595474542877,0
91.204,0.5156723963599595,0.5015030099997719,0.1241961948770697,0
91.255,0.5146612740141557,0.5227247638539614,0.1118079809081662,0
91.306,0.5156723963599595,0.5047831258274122,0.0994025288304667,0
91.358,0.5106167846309404,0.4992629030771941,0.0869735290054087,0
91.409,0.5136501516683519,0.48790354939384,0.0744637545292699,0
91.46,0.5136501516683519,0.4596561912573086,0.0618525305613548,0
91.512,0.5146612740141557,0.3713288564439844,0.0491414292065965,0
91.563,0.5176946410515673,0.2944645226698804,0.0362978427351847,0
91.614,0.5136501516683519,0.2339157202381181,0.0231570696011518,0
91.665,0.5156723963599595,0.1997447349901092,0.009663691616484,0
91.715,0.5176946410515673,0.1665894243759546,-0.0042062791561121,0
91.766,0.5187057633973711,0.1315703776311466,-0.0184834527792141,0
91.816,0.5146612740141557,0.1239381285258746,-0.0332006999301728,0
91.867,0.519716885743175,0.1476579369808212,-0.0483735008179329,0
91.918,0.519716885743175,0.1895605559114989,-0.0640157246805699,0
91.969,0.5176946410515673,0.2675428372492753,-0.0801666760119608,0
92.02,0.519716885743175,0.355989332502606,-0.0968132130324423,0
92.071,0.5237613751263903,0.4102393820770657,-0.1140066408905862,0
92.122,0.5520728008088979,0.4707897699394803,-0.1317214002245126,0
92.173,0.6076845298281093,0.5654453273812312,-0.1499682149316572,0
92.224,1.0,0.5911150595585222,-0.1687815373922931,0
92.275,1.0,0.6213298564434719,-0.1881338970211197,0
92.327,0.8554095045500506,0.6648482765687007,-0.2080489218833945,0
92.377,0.3710819009100101,0.6643840788812965,-0.2285162012581321,0
92.428,0.2639029322548028,0.5483121242085742,-0.2495241206586651,0
92.48,0.2790697674418604,0.3786755127752695,-0.2710593986555598,0
92.531,0.082912032355915,0.174371485488283,-0.2959425313554884,0
92.582,0.3083923154701719,0.0685564840662608,-0.3235667972629803,0
92.635,0.5136501516683519,0.0565992097464438,-0.3533522393305937,0
92.686,0.5278058645096056,0.0671336107952578,-0.3847899779104684,0
92.737,0.4883720930232558,0.0625796645750413,-0.4173267546968577,0
92.789,0.4853387259858443,0.0913486504392341,-0.4503957013861248,0
92.84,0.5005055611729019,0.1377228628565966,-0.4835518760179667,0
92.891,0.5106167846309404,0.2160312596627978,-0.5162641701629775,0
92.941,0.512639029322548,0.2987197346561713,-0.548163722432734,0
92.992,0.512639029322548,0.3732769699967426,-0.5786763772869272,0
93.043,0.5136501516683519,0.4284684418922786,-0.6074347818852457,0
93.093,0.512639029322548,0.4584780337240688,-0.6340149446694943,0
93.144,0.5146612740141557,0.4610546705295854,-0.6580912129113858,0
93.195,0.5146612740141557,0.4112275787750684,-0.6793230829759664,0
93.245,0.5156723963599595,0.3742517871531111,-0.69734255392669,0
93.297,0.5156723963599595,0.3477111437442591,-0.7103325204696591,0
93.347,0.5166835187057635,0.3102901982003427,-0.716893331127664,0
93.399,0.5156723963599595,0.3032888405361872,-0.717373956479199,0
93.451,0.5166835187057635,0.325777145585321,-0.7121188866300954,0
93.501,0.5166835187057635,0.3414997099137931,-0.7014510337880873,0
93.553,0.5146612740141557,0.3183306005170041,-0.6857265865027433,0
93.604,0.5166835187057635,0.3406820644773105,-0.6655197073444068,0
93.655,0.5156723963599595,0.3173831309927153,-0.6414071646411978,0
93.707,0.5176946410515673,0.2784262400272445,-0.6137209865247593,0
93.759,0.5156723963599595,0.3133023206533522,-0.5828929625348576,0
93.811,0.5156723963599595,0.3462665290357781,-0.5493011510760875,0
93.862,0.5187057633973711,0.3219835522858043,-0.5133680208295919,0
93.913,0.5146612740141557,0.2859403942003213,-0.4754861532976004,0
93.965,0.5166835187057635,0.2633044309535137,-0.4360789894256693,0
94.017,0.5166835187057635,0.2464925831286373,-0.3955093893603718,0
94.068,0.5156723963599595,0.2266389615633383,-0.3541652838977187,0
94.12,0.5156723963599595,0.2353845392239509,-0.3124492206024221,0
94.171,0.5166835187057635,0.255361814292017,-0.2707326436867479,0
94.224,0.5187057633973711,0.2888621115343532,-0.2293987197347211,0
94.274,0.519716885743175,0.3176188882311592,-0.188812746749831,0
94.325,0.525783619817998,0.3565603940012783,-0.149350776850752,0
94.375,0.5338725985844287,0.377742458068883,-0.1114116447870627,0
94.426,0.60262891809909,0.4609909395540896,-0.0753555119524738,0
94.477,0.6370070778564206,0.5422165483514422,-0.0415874887067442,0
94.527,0.9989888776541962,0.6134232430883428,-0.0104599544115444,0
94.578,1.0,0.6587678996122529,0.0176546779512212,0
94.629,0.9989888776541962,0.6264065611530457,0.042377657998911,0
94.68,0.4155712841253792,0.548628169869929,0.0633530274528564,0
94.731,0.0111223458038422,0.4170569327715364,0.0802051423559748,0
94.783,0.0,0.2759113403010531,0.0925828603567859,0
94.834,0.0,0.1824334197357267,0.1001483774641345,0
94.886,0.4671385237613751,0.1220665419550929,0.1024723977293622,0
94.936,0.6066734074823054,0.0924696663308087,0.0992457358491958,0
94.988,0.5429726996966633,0.0611642854744327,0.0901060199842052,0
95.039,0.4914054600606674,0.0484813051473377,0.0746593094870926,0
95.092,0.4903943377148635,0.0701416304512386,0.0525473291637241,0
95.143,0.5075834175935289,0.130084992824973,0.0268569393875093,0
95.194,0.5166835187057635,0.1700788423971644,-0.0021351101972342,0
95.245,0.5136501516683519,0.2376634451650278,-0.0341218421664732,0
95.296,0.5136501516683519,0.384785785848273,-0.0710676770714155,0
95.347,0.5146612740141557,0.5953115050194768,-0.1124722275281153,0
