Time,PPG,ECG,resp,afib
0.608,0.25,0.2778404001136717,0.454078861887615,0
0.659,0.4276315789473681,0.2098367939920739,0.4643483903147509,0
0.71,0.5263157894736841,0.2047724210272888,0.4738770308262858,0
0.761,0.3947368421052633,0.1691331200908944,0.4826647834222206,0
0.812,0.4671052631578947,0.1965653393389786,0.4907116481025548,0
0.863,0.4671052631578947,0.1998676583983525,0.4980176248672885,0
0.915,0.4539473684210526,0.2450378801320599,0.504582713716422,0
0.966,0.375,0.1986919471930759,0.5104069146499546,0
1.017,0.3684210526315787,0.1479772326941029,0.5154902276678874,0
1.068,0.4539473684210526,0.177467935826901,0.5198326527702193,0
1.119,0.4078947368421053,0.2472554109765891,0.5234341899569506,0
1.17,0.4539473684210526,0.5237958353758083,0.5262948392280813,0
1.222,0.375,0.9447676585546664,0.5284146005836119,0
1.272,0.4539473684210526,0.9713933850011855,0.5297934740235419,0
1.323,0.4671052631578947,0.464256240300229,0.5304314595478714,0
1.374,0.4605263157894734,0.0693073676877516,0.5303285571566008,0
1.424,0.4473684210526314,0.0,0.5294847668497291,0
1.475,0.4539473684210526,0.0227213442887102,0.5279000886272573,0
1.526,0.4539473684210526,0.053168483055654,0.525574522489185,0
1.577,0.3947368421052633,0.0872807915388176,0.5225080684355121,0
1.628,0.4473684210526314,0.1067906994240007,0.5187007264662387,0
1.679,0.3815789473684208,0.1408849579586592,0.5141524965813651,0
1.73,0.4539473684210526,0.2085550651906423,0.5088633787808909,0
1.781,0.4276315789473681,0.2345660817487364,0.5028333730648162,0
1.832,0.4539473684210526,0.2527577122885341,0.4960624794331409,0
1.883,0.4342105263157894,0.2457267635062787,0.4885506978858065,0
1.934,0.388157894736842,0.2500616754069769,0.482827270638325,0
1.985,0.4736842105263155,0.2582912615005224,0.4761771387176168,0
2.036,0.4473684210526314,0.2556065913611041,0.4685610541281924,0
2.087,0.4473684210526314,0.2481089310149876,0.4599214058352499,0
2.138,0.3618421052631579,0.243603339488265,0.4502314891501138,0
2.189,0.4539473684210526,0.245739022126852,0.4394702684174207,0
2.24,0.4671052631578947,0.2772144706672674,0.4276216206597976,0
2.291,0.4868421052631579,0.2888298055590281,0.4146764645780405,0
2.342,0.4671052631578947,0.281733691761066,0.4006170726323255,0
2.392,0.4605263157894734,0.2691172823275393,0.3854753202668091,0
2.443,0.4276315789473681,0.2688421941079907,0.3692418487113422,0
2.494,0.4078947368421053,0.2324184989281441,0.3519296312249533,0
2.545,0.4342105263157894,0.2064978929016979,0.3335565537446627,0
2.596,0.4210526315789473,0.207553309589248,0.3141346065420771,0
2.647,0.4473684210526314,0.204025583088562,0.2925696159254349,0
2.697,0.375,0.1806561707498346,0.2689179457635418,0
2.748,0.4605263157894734,0.181521476950166,0.2434945191308624,0
2.799,0.4342105263157894,0.1874945396895391,0.2166070183766053,0
2.849,0.4802631578947367,0.2003205380665417,0.1885578793446019,0
2.9,0.4671052631578947,0.2195002772493701,0.1596436697982826,0
2.951,0.4605263157894734,0.2649833190341151,0.1301550894206746,0
3.001,0.4868421052631579,0.2888109846600706,0.1003769698144023,0
3.053,0.4407894736842106,0.3154629224622465,0.0705882745016861,0
3.104,0.4144736842105261,0.325621198326953,0.0410750084523616,0
3.154,0.401315789473684,0.3428111172586767,0.012088800014824,0
3.205,0.4671052631578947,0.3121804364964922,-0.016108881755017,0
3.256,0.3815789473684208,0.2758670427186975,-0.0432624358816551,0
3.307,0.4342105263157894,0.2420739740098672,-0.0691350389980001,0
3.358,0.4473684210526314,0.2109704514760405,-0.0934543177483142,0
3.409,0.4210526315789473,0.1661496578675488,-0.1159979841862171,0
3.46,0.4605263157894734,0.1409713509019227,-0.1365210001297958,0
3.511,0.4473684210526314,0.1292118569555705,-0.1548127040185782,0
3.562,0.4671052631578947,0.138924684501384,-0.1706525935845761,0
3.612,0.3618421052631579,0.1502969876985376,-0.1838131251121879,0
3.664,0.4078947368421053,0.1733297494595479,-0.194808155212192,0
3.715,0.388157894736842,0.1827412761484377,-0.2036531583653156,0
3.766,0.4934210526315787,0.1954000771757583,-0.2095459011510292,0
3.817,0.4276315789473681,0.2171092177480497,-0.211929488009289,0
3.867,0.4802631578947367,0.2367494466375564,-0.2110827861754884,0
3.918,0.4868421052631579,0.238491197495309,-0.2072837730883634,0
3.969,0.4342105263157894,0.2496706296350218,-0.2008095363899906,0
4.02,0.4407894736842106,0.2634020078135435,-0.1919196109299186,0
4.071,0.3947368421052633,0.2618189635964117,-0.180902882012798,0
4.122,0.4342105263157894,0.2586264173122801,-0.1680336514477129,0
4.173,0.4144736842105261,0.2698350350306831,-0.1535686682512151,0
4.224,0.4605263157894734,0.2549649944091952,-0.1377940318949622,0
4.275,0.4671052631578947,0.2355820658903409,-0.1209812583550391,0
4.326,0.4736842105263155,0.2226210884606786,-0.1034000562803307,0
4.376,0.4605263157894734,0.2333623684548765,-0.0853313765347651,0
4.427,0.4605263157894734,0.2199281595661207,-0.0670305058955542,0
4.478,0.4210526315789473,0.2169612033620526,-0.0487488720462896,0
4.529,0.375,0.2007285570318724,-0.0307829985909928,0
4.581,0.4407894736842106,0.1922369369835611,-0.0133800544021882,0
4.631,0.388157894736842,0.1895825040203613,0.0031945217836457,0
4.682,0.4736842105263155,0.1981645519448398,0.0186761810266897,0
4.732,0.4078947368421053,0.1943529854288024,0.0328012641837847,0
4.783,0.4342105263157894,0.1954226566511495,0.0453070019084278,0
4.834,0.4276315789473681,0.2055410465978035,0.0559157691854546,0
4.884,0.4605263157894734,0.203857379920899,0.064385602032281,0
4.935,0.4210526315789473,0.2092942508875734,0.0704886750635651,0
4.986,0.4473684210526314,0.2310585861872313,0.0739006327417453,0
5.037,0.4868421052631579,0.2245007376684579,0.0743958741731249,0
5.088,0.4078947368421053,0.2264850572700836,0.0717168349011476,0
5.139,0.4605263157894734,0.2269653273929769,0.0656068402659131,0
5.19,0.3947368421052633,0.2393627616531722,0.0555321607540761,0
5.241,0.4802631578947367,0.2349701118837656,0.0420733789154117,0
5.292,0.4144736842105261,0.2340952660267696,0.0256791847117394,0
5.343,0.4539473684210526,0.2323185359519826,0.0065903546129084,0
5.394,0.4605263157894734,0.234116858429365,-0.014949687913957,0
5.445,0.4473684210526314,0.2271940028650453,-0.0386926963978924,0
5.496,0.4473684210526314,0.2283388909581048,-0.0643856013640964,0
5.547,0.4407894736842106,0.2194247872737934,-0.0917687220853502,0
5.597,0.4802631578947367,0.2161254259937799,-0.1205815038795408,0
5.648,0.3815789473684208,0.2071995109184239,-0.150556393054158,0
5.699,0.4473684210526314,0.2098869717968756,-0.1814349334521923,0
5.75,0.3947368421052633,0.2110265951617466,-0.2129292864207004,0
5.8,0.4276315789473681,0.227573113776382,-0.2447575238243611,0
5.851,0.4342105263157894,0.2208686279036341,-0.2766328945240102,0
5.902,0.4473684210526314,0.2239344043674681,-0.3082481155887304,0
5.953,0.4407894736842106,0.2173637856847831,-0.3393352984127205,0
6.004,0.4539473684210526,0.2145592536504456,-0.369580313317289,0
6.055,0.4605263157894734,0.2099445790774057,-0.3986910376872599,0
6.105,0.4736842105263155,0.1976724794122654,-0.426347754660106,0
6.156,0.4473684210526314,0.1788761361485915,-0.4523618899440293,0
6.208,0.3289473684210526,0.1848648759429472,-0.4768852667158096,0
6.258,0.401315789473684,0.1852785924335792,-0.4994671313167154,0
6.309,0.388157894736842,0.2181192271867056,-0.5196395503972733,0
6.36,0.4473684210526314,0.2390262652079954,-0.5378934077773208,0
6.411,0.4671052631578947,0.2254036703222145,-0.5547893653157234,0
6.461,0.4868421052631579,0.1944262080328762,-0.570213334496023,0
6.512,0.4671052631578947,0.1931576210857525,-0.5840502397608531,0
6.564,0.4078947368421053,0.2229342529124006,-0.5962282942221244,0
6.615,0.4407894736842106,0.2518650837735066,-0.6066717315559012,0
6.666,0.4078947368421053,0.2655907244667752,-0.6153175986186974,0
6.717,0.4539473684210526,0.2767461998753083,-0.6221157554474734,0
6.768,0.4539473684210526,0.24251422499324,-0.6270288752596382,0
6.818,0.4671052631578947,0.2022135418654507,-0.6300324444530487,0
6.869,0.4605263157894734,0.1614678754606427,-0.631114762606011,0
6.92,0.4605263157894734,0.1539141680307076,-0.6302577828166653,0
6.97,0.4078947368421053,0.1359130567588846,-0.6274772423781712,0
7.021,0.3815789473684208,0.1143580501132612,-0.6228164217876369,0
7.072,0.4736842105263155,0.1395489120711633,-0.6163146221063283,0
7.123,0.4276315789473681,0.205356185916357,-0.608004797915346,0
7.174,0.4802631578947367,0.297428926590117,-0.5976477692287552,0
7.225,0.4144736842105261,0.3541939739147706,-0.5849742671304969,0
7.276,0.4671052631578947,0.3201205889720491,-0.5702247433842809,0
7.326,0.388157894736842,0.2571361635006005,-0.5536462282171413,0
7.378,0.4802631578947367,0.2689065877123796,-0.5354923303194377,0
7.428,0.5,0.302723585937905,-0.5160040771842447,0
7.479,0.4276315789473681,0.2746186169409922,-0.4954644223067184,0
7.531,0.4407894736842106,0.2932428038881395,-0.4741650391718726,0
7.582,0.4078947368421053,0.293067494828112,-0.4523515264008,0
7.633,0.5197368421052633,0.2433306259829838,-0.4303253051104134,0
7.684,0.4276315789473681,0.1806001644485015,-0.4083793306820831,0
7.735,0.4078947368421053,0.1615494054411257,-0.3868131369605039,0
7.785,0.401315789473684,0.1157205194469305,-0.3655749231505885,0
7.836,0.4605263157894734,0.094407695337338,-0.3441806671108747,0
7.887,0.4539473684210526,0.1005163353145256,-0.3227434582796546,0
7.938,0.388157894736842,0.1124649522810645,-0.3013798860037808,0
7.989,0.4605263157894734,0.1363574293371148,-0.2802024532695615,0
8.04,0.4210526315789473,0.1598772648192166,-0.2593233388865452,0
8.091,0.4605263157894734,0.159662988753319,-0.2388542725238998,0
8.142,0.3815789473684208,0.1575770561399784,-0.2189068617453848,0
8.193,0.4539473684210526,0.181575211071214,-0.1995884408890593,0
8.243,0.4144736842105261,0.2081271129703877,-0.1810071070983454,0
8.294,0.4736842105263155,0.2151319942491787,-0.1632721080800148,0
8.345,0.4407894736842106,0.2539658660566134,-0.1464877170486782,0
8.396,0.4671052631578947,0.2821615246876085,-0.1307589700243117,0
8.446,0.5065789473684208,0.2418205674858188,-0.116189877583678,0
8.497,0.4473684210526314,0.2210779585360663,-0.1025335960282243,0
8.548,0.4276315789473681,0.2884607677835065,-0.0899476165100749,0
8.599,0.3947368421052633,0.2819377316724045,-0.0786063940365924,0
8.65,0.4342105263157894,0.2002178098835901,-0.0686824119133735,0
8.701,0.4078947368421053,0.2126008442190765,-0.0603456565610396,0
8.751,0.4868421052631579,0.280000374873454,-0.0535933399465338,0
8.802,0.4473684210526314,0.2906029283241013,-0.0479660278923264,0
8.852,0.4210526315789473,0.2632621541484328,-0.0434615661319455,0
8.903,0.4276315789473681,0.2473839197826416,-0.0400989189055169,0
8.954,0.4605263157894734,0.2465753334913663,-0.0378738932495763,0
9.005,0.4671052631578947,0.2470007803221073,-0.0367651633395746,0
9.055,0.4407894736842106,0.2391274721884217,-0.036759218101193,0
9.106,0.4736842105263155,0.2110973628865842,-0.0378405201191429,0
9.157,0.4407894736842106,0.1971728104294188,-0.0399536995070732,0
9.207,0.4210526315789473,0.1651441646385621,-0.0430478296177576,0
9.258,0.3684210526315787,0.1492457179366166,-0.0470548509428825,0
9.309,0.4539473684210526,0.127517695204486,-0.0519222946032202,0
9.359,0.401315789473684,0.1340867348108519,-0.0575539251509593,0
9.41,0.4736842105263155,0.1363638726822281,-0.0638707838635537,0
9.461,0.4473684210526314,0.1408241009680298,-0.0707828689400442,0
9.512,0.4144736842105261,0.1713212631212683,-0.0781736498647722,0
9.563,0.4407894736842106,0.2268738566427191,-0.0859434937311731,0
9.614,0.4342105263157894,0.2954521190583863,-0.0939529351616199,0
9.665,0.4342105263157894,0.3546772742611904,-0.102066952017608,0
9.716,0.4605263157894734,0.341688136367226,-0.1101411651784012,0
9.766,0.4736842105263155,0.343440672204432,-0.1189639708057352,0
9.817,0.3815789473684208,0.3626458079823145,-0.1288838450945055,0
9.868,0.4342105263157894,0.3001087641021995,-0.1397833267873522,0
9.919,0.4210526315789473,0.1900802486598188,-0.1515285899870995,0
9.969,0.4539473684210526,0.1238384237475265,-0.1640021211237674,0
10.02,0.4078947368421053,0.0912040497158792,-0.1770792341542932,0
10.071,0.4539473684210526,0.0695818551846559,-0.1906457890248871,0
10.122,0.4342105263157894,0.0758149010458328,-0.2045859083680321,0
10.173,0.4144736842105261,0.0863450620665782,-0.2187844923359114,0
10.224,0.4671052631578947,0.1049654449631918,-0.2331256063478517,0
10.276,0.4671052631578947,0.1421632854107443,-0.2475039867760728,0
10.327,0.4736842105263155,0.1908285728893232,-0.2618113600103156,0
10.378,0.4078947368421053,0.3303582206846795,-0.2759449687534498,0
10.429,0.4210526315789473,0.4656084877317106,-0.2897961912993492,0
10.48,0.4473684210526314,0.5686214806263934,-0.3032587873089136,0
10.532,0.4276315789473681,0.5712289886975097,-0.3162370624323123,0
10.582,0.4210526315789473,0.4930864270701228,-0.328633585005988,0
10.634,0.4407894736842106,0.3941820182959597,-0.3403524021525395,0
10.685,0.4407894736842106,0.2620084067377379,-0.3512947523264986,0
10.735,0.4078947368421053,0.1256845856187152,-0.3613785563974763,0
10.786,0.4276315789473681,0.0475278089932231,-0.3705089567830342,0
10.837,0.3552631578947367,0.0260620858785244,-0.3790428426356653,0
10.888,0.4276315789473681,0.0275679956564521,-0.3869316517622976,0
10.939,0.4605263157894734,0.032156019727604,-0.3939607476708371,0
10.99,0.4868421052631579,0.0430521161651376,-0.3999407129773424,0
11.041,0.4802631578947367,0.0570529918257968,-0.4047040690654113,0
11.091,0.4210526315789473,0.093001153117102,-0.4084672963238764,0
11.143,0.4144736842105261,0.1347004686545441,-0.4111797597340811,0
11.193,0.3815789473684208,0.235183821719976,-0.4127649991063791,0
11.244,0.4736842105263155,0.3744743440192029,-0.4131564871247111,0
11.294,0.4144736842105261,0.5155687549948859,-0.412288167371571,0
11.345,0.4671052631578947,0.5969865499021274,-0.4101210880355039,0
11.396,0.4605263157894734,0.579039875246259,-0.4066184542997866,0
11.447,0.4671052631578947,0.4986715377400206,-0.401738276062221,0
11.497,0.4276315789473681,0.3674130427784333,-0.3954819041121222,0
11.548,0.4539473684210526,0.2095295316349988,-0.3878422136127182,0
11.599,0.4868421052631579,0.1031773652435329,-0.3788163464167886,0
11.651,0.3684210526315787,0.0586587947770601,-0.3684276135361655,0
11.702,0.4276315789473681,0.0414138762413274,-0.3566834980763786,0
11.752,0.3355263157894734,0.0366941100650616,-0.343634824034476,0
11.803,0.4144736842105261,0.0417148378149551,-0.3293239397814123,0
11.854,0.4407894736842106,0.0418474193561089,-0.3138277166958252,0
11.905,0.4605263157894734,0.0594407933940438,-0.2971729173045094,0
11.955,0.4210526315789473,0.0802192501071402,-0.2794490550938677,0
12.007,0.4210526315789473,0.1217114379746807,-0.2598867239333406,0
12.058,0.4868421052631579,0.1876720066656105,-0.2386758380135232,0
12.109,0.4539473684210526,0.316932899784085,-0.2161119509049061,0
12.161,0.4473684210526314,0.4311602483892847,-0.1924789074142214,0
12.212,0.3815789473684208,0.4833959636432245,-0.1680660899657815,0
12.263,0.4934210526315787,0.5332306892976385,-0.1431650540808546,0
12.315,0.4473684210526314,0.5452369054742013,-0.1180695283776742,0
12.365,0.4473684210526314,0.4306389768406654,-0.0924051636212492,0
12.416,0.3947368421052633,0.2767410874722505,-0.0662764976865966,0
12.467,0.4144736842105261,0.200300626107298,-0.0398360478369372,0
12.518,0.4539473684210526,0.1376650531759846,-0.0132483822865356,0
12.569,0.4276315789473681,0.0794333128911188,0.0133382896648202,0
12.62,0.4605263157894734,0.0731732959067876,0.0397695354124119,0
12.671,0.4539473684210526,0.0628982107482927,0.0659031187754011,0
12.721,0.4934210526315787,0.0685846902309691,0.0915956453394892,0
12.772,0.3618421052631579,0.0886305122351405,0.1167039599745933,0
12.823,0.4407894736842106,0.1135425068215419,0.1410889527181718,0
12.873,0.4539473684210526,0.1478257268450175,0.1646203455109396,0
12.924,0.4144736842105261,0.2000636351007121,0.1871667020601504,0
12.974,0.4473684210526314,0.219532492567174,0.2086046554016625,0
13.025,0.4210526315789473,0.2490012999194844,0.2288046506617411,0
13.076,0.4802631578947367,0.3096992776249783,0.2476392346429152,0
13.128,0.4276315789473681,0.3333048228226024,0.2649903855986717,0
13.179,0.5065789473684208,0.3064759244431734,0.2807450295309071,0
13.23,0.4539473684210526,0.322188713705862,0.2947924971509557,0
13.281,0.5065789473684208,0.3305277131196118,0.3070111874010313,0
13.332,0.4473684210526314,0.3023938995110425,0.3173062312211874,0
13.382,0.401315789473684,0.2501038128159314,0.3255718096035762,0
13.433,0.4342105263157894,0.2371191547139967,0.3322442022552661,0
13.484,0.4276315789473681,0.1951825998591718,0.3374830973140663,0
13.535,0.4539473684210526,0.1773893384378161,0.3419927418401589,0
13.586,0.4078947368421053,0.1866612081225534,0.3456917618712216,0
13.636,0.513157894736842,0.1849717557114391,0.3485247212731028,0
13.688,0.401315789473684,0.1695447895194882,0.3503945919086422,0
13.739,0.401315789473684,0.1610499243516909,0.351229456537109,0
13.79,0.3947368421052633,0.1496658699198492,0.3509767186775225,0
13.841,0.4605263157894734,0.1576291807268818,0.3495976701968781,0
13.892,0.4539473684210526,0.1763453692223227,0.3470505945726998,0
13.943,0.401315789473684,0.1899768222982635,0.3433449772590373,0
13.994,0.4802631578947367,0.1914581217798738,0.338500528224543,0
14.044,0.4473684210526314,0.1891692673131128,0.3324782269201725,0
14.095,0.4736842105263155,0.2076398071388731,0.3253442233621673,0
14.146,0.401315789473684,0.2195363075747357,0.3171597639223158,0
14.197,0.4671052631578947,0.219197458751588,0.3079273644547022,0
14.248,0.4407894736842106,0.2256584726025327,0.2977547113787024,0
14.299,0.4868421052631579,0.2543045895881031,0.2867092822321018,0
14.35,0.4736842105263155,0.2772354587346197,0.274888954181141,0
14.4,0.4539473684210526,0.2688993143596284,0.2624276782095234,0
14.451,0.4539473684210526,0.3131815548003274,0.2494711415777795,0
14.503,0.4078947368421053,0.3420424455761234,0.2361455118764861,0
14.553,0.4210526315789473,0.33521567808661,0.2226059732032648,0
14.604,0.4144736842105261,0.2893258970175216,0.2079778068086204,0
14.656,0.4671052631578947,0.295242935839373,0.1921906951593706,0
14.707,0.4407894736842106,0.29326743283659,0.1752150013580151,0
14.758,0.4868421052631579,0.2528669972220788,0.1570584247250823,0
14.809,0.4934210526315787,0.1912210981929852,0.137716997554548,0
14.859,0.401315789473684,0.1504167101335513,0.1171928807117379,0
14.91,0.3947368421052633,0.1315475610294876,0.095494363633334,0
14.962,0.3421052631578947,0.1227983101317342,0.0711747538062157,0
15.013,0.4473684210526314,0.1249162294950783,0.0437036005076136,0
15.064,0.4210526315789473,0.1212467343034215,0.0135800711190281,0
15.115,0.4473684210526314,0.1278673306312918,-0.0187129842072373,0
15.165,0.4605263157894734,0.1626854937380539,-0.0526777826394901,0
15.216,0.4473684210526314,0.1975095984206968,-0.0878929978352376,0
15.268,0.4539473684210526,0.2507971750610546,-0.12391619419216,0
15.318,0.388157894736842,0.323940484571533,-0.1603184883642106,0
15.369,0.4605263157894734,0.3735422967461222,-0.196681184740997,0
15.421,0.4736842105263155,0.3432212444589889,-0.2326052459502698,0
15.471,0.4868421052631579,0.3266688444436572,-0.2677024219031323,0
15.522,0.3815789473684208,0.3383222539843917,-0.3015980147669626,0
15.573,0.4605263157894734,0.3295897707744459,-0.3339308789654116,0
15.623,0.4605263157894734,0.279665759894902,-0.3643534211784072,0
15.674,0.4736842105263155,0.2390477986959494,-0.3925031154064866,0
15.725,0.4671052631578947,0.2085611763909945,-0.4180905276187641,0
15.776,0.4539473684210526,0.1707207109644287,-0.4408112205063956,0
15.827,0.4605263157894734,0.133912951534797,-0.4603464236288497,0
15.877,0.401315789473684,0.1345673061244428,-0.4761795106593003,0
15.928,0.4342105263157894,0.1251451573209339,-0.486038956021984,0
15.978,0.3552631578947367,0.1264977688702004,-0.4901575367219624,0
16.029,0.4276315789473681,0.1326778248574506,-0.4887728369142505,0
16.08,0.4210526315789473,0.1740561240973161,-0.482081087237846,0
16.131,0.4671052631578947,0.2345892578626611,-0.4711264767145555,0
16.182,0.4868421052631579,0.2791793538103978,-0.4562910605630004,0
16.233,0.4802631578947367,0.2975106008356333,-0.4379582063102227,0
16.284,0.4671052631578947,0.3187587370105577,-0.4165148343068576,0
16.335,0.4276315789473681,0.400199228032001,-0.3923275929781691,0
16.386,0.4342105263157894,0.4334916676468038,-0.3657420375692908,0
16.436,0.3815789473684208,0.3863934500742981,-0.3371416370797706,0
16.487,0.5197368421052633,0.3235603822371012,-0.3068513100207353,0
16.538,0.3947368421052633,0.2412159062522484,-0.2752540495733129,0
16.589,0.4539473684210526,0.166077315201221,-0.2427364017422157,0
16.64,0.4144736842105261,0.1009133752523689,-0.2096269273229927,0
16.691,0.4144736842105261,0.0896321311160039,-0.1763082864674041,0
16.742,0.375,0.0792516377352602,-0.1431666921508028,0
16.793,0.3618421052631579,0.0723679417330644,-0.1105475248523397,0
16.844,0.4539473684210526,0.0791110277883296,-0.0788123854995803,0
16.895,0.4473684210526314,0.1158930859267379,-0.0483267393240862,0
16.945,0.4802631578947367,0.1805872025146126,-0.0194353799767958,0
16.996,0.4144736842105261,0.2535440867116988,0.0074796962725902,0
17.047,0.4342105263157894,0.3100318362187507,0.0320535009016142,0
17.097,0.4342105263157894,0.3623716694981729,0.0539211563976063,0
17.148,0.5197368421052633,0.450099463272869,0.0727007435447197,0
17.199,0.4407894736842106,0.5056393815664525,0.0880860463284909,0
17.25,0.3947368421052633,0.4132960273467277,0.0996748951566597,0
17.3,0.4342105263157894,0.2929397036294957,0.1071064080933155,0
17.351,0.4144736842105261,0.1915055569896884,0.1100203794915826,0
17.402,0.4605263157894734,0.1096651092068636,0.1064634781198572,0
17.453,0.401315789473684,0.0677990990859953,0.0959516596828686,0
17.504,0.4802631578947367,0.0548965906856253,0.0785326543592632,0
17.555,0.4473684210526314,0.0624245926740433,0.0560418356299408,0
17.605,0.4736842105263155,0.0726368797345072,0.0298291410688369,0
17.656,0.4144736842105261,0.0871642106593779,0.000424771078058,0
17.706,0.4342105263157894,0.1670662477757453,-0.0316386328064011,0
17.757,0.3947368421052633,0.307607619960058,-0.0658606494307636,0
17.808,0.4539473684210526,0.4909682459304458,-0.1016755122744399,0
17.859,0.4671052631578947,0.5335966077871499,-0.1385434986186196,0
17.91,0.4276315789473681,0.5220285092194628,-0.1759224446106033,0
17.961,0.4144736842105261,0.4457107811639041,-0.2132677452638076,0
18.012,0.3618421052631579,0.3010022867835747,-0.2500323544577627,0
18.062,0.4605263157894734,0.1653891063718845,-0.2856667849381122,0
18.113,0.388157894736842,0.0698643016329905,-0.3196191083166106,0
18.164,0.4210526315789473,0.0349814687636685,-0.3513349550711315,0
18.215,0.4473684210526314,0.0320352391180037,-0.3802575145456579,0
18.266,0.4407894736842106,0.0315826745232327,-0.4058621964663902,0
18.317,0.4671052631578947,0.0364134167651166,-0.427559065192715,0
18.368,0.4210526315789473,0.0551547604400846,-0.443837183605672,0
18.418,0.4407894736842106,0.0896703588589956,-0.4541257337199764,0
18.47,0.3684210526315787,0.1309038930829883,-0.4583888257238946,0
18.521,0.4342105263157894,0.2565196326157723,-0.4588531302700429,0
18.571,0.4539473684210526,0.4352329094358452,-0.4556903524115527,0
18.622,0.5197368421052633,0.5909946479699116,-0.4490586121386368,0
18.673,0.4473684210526314,0.674646486630651,-0.4391615451128214,0
18.724,0.4539473684210526,0.5940631227707341,-0.4261921488507627,0
18.775,0.4736842105263155,0.4506122518241438,-0.4103514832519375,0
18.825,0.4342105263157894,0.303719328329435,-0.3918471227839171,0
18.876,0.4407894736842106,0.1844132272293672,-0.3708940047467033,0
18.927,0.4144736842105261,0.0998240576268834,-0.3476942537976035,0
18.978,0.4868421052631579,0.062672806296236,-0.3224947348707352,0
19.029,0.3947368421052633,0.0477504465430614,-0.2955112253491392,0
19.08,0.4342105263157894,0.0419735483084487,-0.2670054409321944,0
19.131,0.375,0.0522541426227694,-0.237229155750525,0
19.182,0.5,0.0524998821636041,-0.2064403087276507,0
19.233,0.4605263157894734,0.0688048438277719,-0.1749053238149436,0
19.284,0.4473684210526314,0.0891699102244079,-0.1428974863327847,0
19.335,0.4802631578947367,0.1441857370574981,-0.1106973685898755,0
19.386,0.4276315789473681,0.2223734681534776,-0.0785719578319996,0
19.437,0.4144736842105261,0.344475255231754,-0.0468334072010572,0
19.488,0.3815789473684208,0.4371441676997042,-0.0157840041143022,0
19.539,0.4802631578947367,0.4819764138075086,0.014266677022694,0
19.59,0.4605263157894734,0.505438209908048,0.0430014250408437,0
19.641,0.4671052631578947,0.4486775298467984,0.0700965142029659,0
19.692,0.4407894736842106,0.3013864572762559,0.0952205061642534,0
19.742,0.3815789473684208,0.1996183970747908,0.1180555476428186,0
19.793,0.4671052631578947,0.1563871024760936,0.1380636362266778,0
19.844,0.4473684210526314,0.1278067835145144,0.1549242821321437,0
19.895,0.4736842105263155,0.0969574205384248,0.1683319941568872,0
19.945,0.3947368421052633,0.1041289657642992,0.1779376594104724,0
19.996,0.4342105263157894,0.1071433797060072,0.1853278389102874,0
20.046,0.4276315789473681,0.120254676997678,0.1910572672365056,0
20.097,0.4868421052631579,0.1544117730320872,0.1952381108826681,0
20.149,0.3947368421052633,0.1942928713493578,0.1979633377284191,0
20.2,0.3947368421052633,0.2259404854316159,0.1993879971728769,0
20.251,0.4407894736842106,0.2658825773852109,0.1996462830380023,0
20.303,0.4539473684210526,0.2814666625940476,0.1988846463986164,0
20.354,0.4671052631578947,0.2958826895571571,0.1972551571417411,0
20.404,0.4078947368421053,0.2845657186450067,0.1949251114988617,0
20.456,0.4539473684210526,0.278309347196407,0.1920697697395361,0
20.507,0.401315789473684,0.2461336507331614,0.1888663925242788,0
20.558,0.4605263157894734,0.2025904489453714,0.1855044977664648,0
20.609,0.4473684210526314,0.1938278683823524,0.1821822167471807,0
20.66,0.4078947368421053,0.1910264987024153,0.1791062941152237,0
20.711,0.4605263157894734,0.1802209608035386,0.1764920878871012,0
20.762,0.4407894736842106,0.1848824608598927,0.1745635694470313,0
20.813,0.4736842105263155,0.1891434953257675,0.1735533235469439,0
20.863,0.3947368421052633,0.2020957870348694,0.1737055428619891,0
20.914,0.4671052631578947,0.2138868362754928,0.1752664204582759,0
20.965,0.4276315789473681,0.2471055734376613,0.1773420071684945,0
21.016,0.4671052631578947,0.2528501083391855,0.1796982412066268,0
21.066,0.4473684210526314,0.2696031447620096,0.1823364836871546,0
21.117,0.4210526315789473,0.2616225545457259,0.1852558729568336,0
21.168,0.4407894736842106,0.2718949455370157,0.1886338554332276,0
21.218,0.4473684210526314,0.2727205457679665,0.1932155189014568,0
21.269,0.4539473684210526,0.2613776689690451,0.1987968504352464,0
21.32,0.3947368421052633,0.2258890277204876,0.2051798225531977,0
21.371,0.4473684210526314,0.2019164791250102,0.2121580084164378,0
21.422,0.388157894736842,0.1998252825591707,0.2195661511603495,0
21.472,0.4671052631578947,0.2009176671866252,0.2272262885475675,0
21.523,0.4210526315789473,0.1937066587673958,0.2349679886260491,0
21.574,0.4144736842105261,0.1872329731254406,0.2426112949165841,0
21.626,0.4473684210526314,0.1966287236148393,0.2500177677151312,0
21.677,0.4802631578947367,0.2329861938557859,0.2570371102092359,0
21.727,0.4671052631578947,0.2441126487796502,0.2635417919127323,0
21.778,0.3815789473684208,0.2668439841274218,0.2693746576356495,0
21.829,0.4473684210526314,0.2755443211602978,0.274389887025197,0
21.88,0.4078947368421053,0.2880943529758102,0.2784832523478693,0
21.931,0.4539473684210526,0.2689564876124552,0.2815378963415211,0
21.982,0.4078947368421053,0.2737029145248624,0.2834437196091102,0
22.033,0.4539473684210526,0.2661695305912129,0.2840973806186935,0
22.084,0.4605263157894734,0.2477380255002322,0.2834022957034317,0
22.134,0.4605263157894734,0.2177902200715464,0.2812686390615844,0
22.185,0.4210526315789473,0.2027022101356718,0.2776137683758191,0
22.236,0.388157894736842,0.2041676784531648,0.2723610267736838,0
22.287,0.4539473684210526,0.2052558467769896,0.2654249324059443,0
22.338,0.375,0.2042320198046393,0.2567619458178445,0
22.389,0.4934210526315787,0.2039875818657238,0.2465034261743759,0
22.439,0.4539473684210526,0.2115490969107814,0.2346387737539634,0
22.49,0.4473684210526314,0.2286442612958046,0.2212002645107933,0
22.541,0.4210526315789473,0.2298152976406169,0.206170166803385,0
22.592,0.4276315789473681,0.2457684093220832,0.1895649575733564,0
22.642,0.4276315789473681,0.2509988756881968,0.1714063274194099,0
22.693,0.4144736842105261,0.2566523043208938,0.1511042469713355,0
22.744,0.4539473684210526,0.2409627572576849,0.1286579829205898,0
22.795,0.4276315789473681,0.2429170907926528,0.104269578030951,0
22.845,0.4605263157894734,0.2480187669728416,0.0781486007084253,0
22.896,0.4144736842105261,0.2448718336767221,0.0505031372052808,0
22.947,0.4539473684210526,0.2285466606909089,0.0215464300607113,0
22.999,0.4276315789473681,0.2341563558835235,-0.0085133787610724,0
23.05,0.4539473684210526,0.2444092869016349,-0.0394677770887712,0
23.1,0.4473684210526314,0.2533491111207461,-0.0710990389622479,0
23.151,0.4605263157894734,0.2484026978978016,-0.1031915203113937,0
23.202,0.4802631578947367,0.2484458349613243,-0.1355280646643306,0
23.253,0.401315789473684,0.2470903265018806,-0.1678904960124558,0
23.304,0.4671052631578947,0.2550946601914367,-0.2000580375350766,0
23.355,0.375,0.2589762151846702,-0.2318089997460242,0
23.406,0.4802631578947367,0.2679895961365344,-0.2629196878923072,0
23.457,0.4342105263157894,0.2517399157185941,-0.2931696271146276,0
23.508,0.4736842105263155,0.2457553115406042,-0.322329617438863,0
23.558,0.4605263157894734,0.2337346226519564,-0.3501719410446302,0
23.609,0.4210526315789473,0.2265776823900563,-0.3764673677097723,0
23.66,0.4539473684210526,0.2190608382364999,-0.4009851548103591,0
23.71,0.4078947368421053,0.2220615919865788,-0.4232663781525656,0
23.762,0.4078947368421053,0.2151424871419592,-0.4433406832806756,0
23.813,0.4078947368421053,0.2120943669169745,-0.4620202185897133,0
23.864,0.4934210526315787,0.2273272442047529,-0.4793200315255286,0
23.915,0.4736842105263155,0.243041814911182,-0.4952819525206908,0
23.966,0.4868421052631579,0.2338900056953823,-0.5099111422631315,0
24.016,0.4407894736842106,0.2415361145880697,-0.5232747289568778,0
24.067,0.4473684210526314,0.2502321167293551,-0.5354116047808186,0
24.118,0.4342105263157894,0.2636416557590285,-0.5463714707922953,0
24.169,0.4078947368421053,0.2571158712742449,-0.5561893909728219,0
24.22,0.4736842105263155,0.2701802467960298,-0.5649403641511987,0
24.271,0.4078947368421053,0.2632647685065604,-0.5726931857998956,0
24.321,0.4473684210526314,0.2477302459105517,-0.579529793937601,0
24.372,0.4078947368421053,0.2372426072338132,-0.5855077509320799,0
24.423,0.4671052631578947,0.2364428103232719,-0.5906859146923462,0
24.474,0.4539473684210526,0.2273182900255732,-0.5951630779746997,0
24.524,0.4342105263157894,0.2220246893252377,-0.5990268512362744,0
24.575,0.4276315789473681,0.2187291768981972,-0.6023695952521129,0
24.626,0.4605263157894734,0.2251789172908505,-0.605288421115171,0
24.678,0.4342105263157894,0.2228685565859762,-0.6083713409981371,0
24.729,0.3947368421052633,0.218369680588551,-0.6124236123675144,0
24.78,0.4078947368421053,0.2105265515508169,-0.6172927983074805,0
24.831,0.3618421052631579,0.2174325799887195,-0.6228421482567581,0
24.882,0.4868421052631579,0.2243226491794727,-0.6289312106148777,0
24.933,0.5,0.2353402485877179,-0.6354704046652908,0
24.984,0.4407894736842106,0.2382665243510078,-0.6423901416999682,0
25.035,0.4407894736842106,0.2594891821410796,-0.6495522008520667,0
25.085,0.4144736842105261,0.2704521605582586,-0.6569579390526343,0
25.137,0.4605263157894734,0.2627616987931606,-0.6645486557691498,0
25.187,0.4210526315789473,0.2537861955012154,-0.6722972694407141,0
25.239,0.4407894736842106,0.2608937852240559,-0.6801923848609726,0
25.289,0.4342105263157894,0.2577176978631522,-0.6874839417939718,0
25.34,0.4671052631578947,0.2516722332128785,-0.6938478041600042,0
25.391,0.4407894736842106,0.2337033155514379,-0.6991374140052775,0
25.442,0.4539473684210526,0.2274366201936762,-0.7031944727836175,0
25.493,0.4144736842105261,0.2303887744876197,-0.7059143653411384,0
25.543,0.4210526315789473,0.2234584228266709,-0.7071768403960086,0
25.594,0.5,0.2093588367557179,-0.7065358054627169,0
25.645,0.4210526315789473,0.2125048771027331,-0.7038704537082374,0
25.696,0.4276315789473681,0.2065205392341971,-0.699161219581832,0
25.747,0.3618421052631579,0.2167418660028296,-0.6924198395380192,0
25.798,0.4605263157894734,0.2208568348727158,-0.6836489022615142,0
25.849,0.4605263157894734,0.238949463399253,-0.6728557943425508,0
25.9,0.4605263157894734,0.2459686534913148,-0.6600543884234908,0
25.95,0.4934210526315787,0.2660488023378499,-0.6452515084615043,0
26.001,0.4539473684210526,0.263607845013779,-0.6284863730203616,0
26.052,0.4210526315789473,0.2570397716987163,-0.6097879644837148,0
26.103,0.375,0.2403062302425719,-0.5891911557420781,0
26.154,0.4276315789473681,0.2130883822668985,-0.5667362173277797,0
26.205,0.3815789473684208,0.1950196550917868,-0.5424807708769199,0
26.257,0.4605263157894734,0.1849894623002099,-0.5164494849769647,0
26.307,0.4210526315789473,0.1848855559096691,-0.4890011413296506,0
26.358,0.4605263157894734,0.2014664383813371,-0.4602368155954128,0
26.409,0.4868421052631579,0.187027170843798,-0.4302712926214347,0
26.46,0.388157894736842,0.1874209039117026,-0.3992437541156057,0
26.511,0.4144736842105261,0.1820417745541773,-0.3672786922517379,0
26.562,0.4276315789473681,0.1911585690424377,-0.3345299750071837,0
26.613,0.4934210526315787,0.1858195176108422,-0.3011367808252201,0
26.664,0.4210526315789473,0.5919219090707252,-0.2672616053921208,0
26.714,0.4342105263157894,0.5344180711955349,-0.2330693085860562,0
26.765,0.4276315789473681,0.5127311666297159,-0.1987320934199301,0
26.816,0.5065789473684208,0.568403168800865,-0.164417552579418,0
26.867,0.4605263157894734,0.5884776634773846,-0.1286469892076835,0
26.918,0.388157894736842,0.5647038104689153,-0.0917963490231845,0
26.968,0.4473684210526314,0.5832122589047091,-0.0544373785265648,0
27.019,0.375,0.5854365434368854,-0.0171334714600526,0
27.07,0.4276315789473681,0.6084747549512339,0.0195360917714779,0
27.121,0.401315789473684,0.6343642659725903,0.0550539122430704,0
27.172,0.4868421052631579,0.6296402322651306,0.0888572089491499,0
27.222,0.4342105263157894,0.6580573111862631,0.1204450823640628,0
27.273,0.4473684210526314,0.6744993179492362,0.1498628169871216,0
27.324,0.4407894736842106,0.6439064600765743,0.177708942707655,0
27.375,0.4407894736842106,0.6299011471546581,0.203771855645622,0
27.426,0.4276315789473681,0.6346751367574656,0.2278350012949732,0
27.478,0.401315789473684,0.6312895923983501,0.2497546426662116,0
27.528,0.4605263157894734,0.6250639973612809,0.2693768361469146,0
27.58,0.4078947368421053,0.6324663571041248,0.2865673141703135,0
27.631,0.4671052631578947,0.6274290373227669,0.3011953071659565,0
27.682,0.4539473684210526,0.6264763596997821,0.3132090094811528,0
27.733,0.4539473684210526,0.6200479597973103,0.3224778978446405,0
27.784,0.4473684210526314,0.6129010281378564,0.3289737619196851,0
27.835,0.4210526315789473,0.6357251406769451,0.3326581847466272,0
27.886,0.4539473684210526,0.6489887602661316,0.333487798739799,0
27.937,0.3815789473684208,0.6350859954187541,0.331492053830082,0
27.988,0.4407894736842106,0.619496569314013,0.3266901933254362,0
28.039,0.4407894736842106,0.6297576939863442,0.319096122657208,0
28.089,0.4934210526315787,0.6494889137998744,0.308787728900362,0
28.14,0.4473684210526314,0.6382396024419391,0.2958419496538593,0
28.191,0.4144736842105261,0.6250204124675363,0.2799475757415384,0
28.242,0.4868421052631579,0.6176236369176764,0.2610379626288224,0
28.293,0.4276315789473681,0.6421323495734357,0.2391353097790425,0
28.343,0.4605263157894734,0.6502599345937191,0.2143039097771608,0
28.394,0.388157894736842,0.6854382589516627,0.1865875582182696,0
28.444,0.4868421052631579,0.7088123597005997,0.1550385856098732,0
28.495,0.401315789473684,0.6864089282240461,0.1197703909121647,0
28.545,0.4605263157894734,0.6523754053217417,0.0811377603552343,0
28.596,0.4210526315789473,0.6320590480065559,0.0395281767716735,0
28.647,0.4407894736842106,0.5999119506351553,-0.0046792993009781,0
28.697,0.4342105263157894,0.5812184622110345,-0.0510999335106552,0
28.748,0.4276315789473681,0.5750124516554634,-0.0993440788945254,0
28.799,0.401315789473684,0.5996950541527196,-0.1490020049078877,0
28.849,0.4078947368421053,0.6034391712550919,-0.1997013924792456,0
28.9,0.4276315789473681,0.5891293196547527,-0.2510107270610233,0
28.952,0.3815789473684208,0.5948037827224993,-0.3025339391886752,0
29.002,0.4671052631578947,0.5998172105317335,-0.3538553251178222,0
29.053,0.4276315789473681,0.5963760264939786,-0.4045570367004281,0
29.104,0.4671052631578947,0.609302897541184,-0.4542141705300659,0
29.154,0.4078947368421053,0.6083325350861822,-0.5023982973527878,0
29.205,0.4802631578947367,0.6248725411350762,-0.5486673296156508,0
29.256,0.4671052631578947,0.652168830344801,-0.5925593875313053,0
29.307,0.4605263157894734,0.6838589926432361,-0.6336372677218007,0
29.358,0.4210526315789473,0.6728135571887015,-0.6714585829098692,0
29.409,0.4078947368421053,0.6572165544339792,-0.7055903073305392,0
29.46,0.4210526315789473,0.6671751587656534,-0.7376047839166888,0
29.511,0.4078947368421053,0.6731019150978099,-0.7676305207522867,0
29.562,0.4210526315789473,0.6699031632077208,-0.7956346722264389,0
29.613,0.4736842105263155,0.6668853501527535,-0.8215949047220787,0
29.663,0.4802631578947367,0.6775897070348921,-0.8454699011979916,0
29.714,0.4407894736842106,0.6787618746345672,-0.8672823853282976,0
29.764,0.4736842105263155,0.6348292340097788,-0.887011857941912,0
29.815,0.4407894736842106,0.6393588244975049,-0.9047018605830808,0
29.865,0.3815789473684208,0.6420482805909178,-0.9203527119508468,0
29.916,0.4605263157894734,0.6139412110515835,-0.9340287714595844,0
29.967,0.4473684210526314,0.6034615628338701,-0.9457806710964368,0
30.018,0.4802631578947367,0.6357102059529337,-0.956060020453962,0
30.068,0.4276315789473681,0.6252488779537275,-0.9655417952569764,0
30.119,0.4671052631578947,0.6092303483612398,-0.9740851244210156,0
30.169,0.4144736842105261,0.6204723168897055,-0.9815393944183972,0
30.221,0.4605263157894734,0.6476501886114976,-0.9878272734177004,0
30.271,0.4210526315789473,0.6670470541251948,-0.9928964385591744,0
30.323,0.4144736842105261,0.6585588582458366,-0.996631295818343,0
30.374,0.4539473684210526,0.6562120940886688,-0.9990137722880532,0
30.426,0.4473684210526314,0.6647145856010165,-0.9999999999999998,0
30.476,0.4868421052631579,0.6717239586784802,-0.9995834250671136,0
30.527,0.4210526315789473,0.6808552419971342,-0.9978048461932768,0
30.579,0.4671052631578947,0.6722696156976928,-0.994700575636068,0
30.629,0.4407894736842106,0.6862800502638406,-0.9903266786278206,0
30.68,0.4605263157894734,0.6777495684204429,-0.9847589733756226,0
30.731,0.4736842105263155,0.6485040807263329,-0.9780930310613188,0
30.783,0.4342105263157894,0.6432141476761919,-0.9704441758415084,0
30.834,0.4210526315789473,0.6693587771795244,-0.961525035527147,0
30.884,0.3552631578947367,0.6704435764870782,-0.9512978461323756,0
30.935,0.4210526315789473,0.6681662325878495,-0.9400800680001526,0
30.986,0.401315789473684,0.6451237593923047,-0.9281734406825386,0
31.036,0.4276315789473681,0.6268050138104587,-0.9146563208863768,0
31.087,0.388157894736842,0.606854040942151,-0.8994041536940838,0
31.138,0.4276315789473681,0.5998113659517934,-0.8824772813057136,0
31.188,0.4473684210526314,0.6068542822203841,-0.8639661924345852,0
31.239,0.4736842105263155,0.6337259194627725,-0.8439538311297998,0
31.289,0.4736842105263155,0.6281302048325449,-0.8225267583446376,0
31.34,0.4407894736842106,0.6382232809210364,-0.7997670031286463,0
31.391,0.4473684210526314,0.6459113405967826,-0.7757769609201044,0
31.442,0.3947368421052633,0.6730878846477081,-0.7506514824930721,0
31.493,0.4210526315789473,0.6823820715331337,-0.7244822734811234,0
31.544,0.3947368421052633,0.6612416832171596,-0.6973785020551786,0
31.595,0.4605263157894734,0.6739673439118758,-0.6694384181244846,0
31.646,0.4605263157894734,0.6924290632028858,-0.6407846318245747,0
31.696,0.4671052631578947,0.6929888406257791,-0.6115189832337011,0
31.747,0.4539473684210526,0.6809826501708867,-0.5817540715766123,0
31.798,0.401315789473684,0.6661396588571625,-0.5516083067012574,0
31.849,0.4276315789473681,0.6672652816736192,-0.5212416367665451,0
31.9,0.3947368421052633,0.6531509971120724,-0.4907835787102368,0
31.951,0.4407894736842106,0.6404640821127482,-0.4603593888549131,0
32.002,0.4276315789473681,0.6598135728777456,-0.4292750267952332,0
32.053,0.5197368421052633,0.6839687290124054,-0.3977206707637357,0
32.104,0.4802631578947367,0.679089550695152,-0.3660323266779861,0
32.155,0.4210526315789473,0.6807541736935439,-0.3345410737726104,0
32.206,0.4276315789473681,0.6557768021385932,-0.3035617042480441,0
32.257,0.401315789473684,0.6599189518288979,-0.2734291710641257,0
32.308,0.4605263157894734,0.6287208757408089,-0.2444596768050346,0
32.36,0.388157894736842,0.5668569432022876,-0.2169644973720101,0
32.41,0.4342105263157894,0.5498944496043572,-0.1912499819833524,0
32.461,0.4342105263157894,0.5969043185112276,-0.1676175531744186,0
32.512,0.4473684210526314,0.6153235097344936,-0.146363706797628,0
32.563,0.4078947368421053,0.6264157861191944,-0.1277800120224603,0
32.613,0.4342105263157894,0.6342487105905267,-0.1116534476787918,0
32.664,0.5,0.639278078606387,-0.0973460080406125,0
32.715,0.4605263157894734,0.6499504016878989,-0.0848974820896568,0
32.765,0.4473684210526314,0.6662008477840649,-0.0743084037014498,0
32.816,0.401315789473684,0.7055898176026079,-0.0655903231316159,0
32.866,0.4736842105263155,0.7346642444506412,-0.0587155355295663,0
32.918,0.4210526315789473,0.7340816437439432,-0.0536559920735664,0
32.969,0.4473684210526314,0.7344338352522022,-0.0503694762780102,0
33.02,0.4539473684210526,0.7366504035500663,-0.0488255330987352,0
33.07,0.4407894736842106,0.7392121892273471,-0.0489324833032576,0
33.121,0.4210526315789473,0.7047894317256926,-0.0506057886100697,0
33.172,0.401315789473684,0.6511644973077511,-0.0537467430737956,0
33.222,0.4802631578947367,0.6449206242099068,-0.058253833436443,0
33.273,0.4342105263157894,0.649915807454154,-0.0639862913338054,0
33.324,0.3815789473684208,0.6181190315490955,-0.0712320130108961,0
33.375,0.375,0.5908741567532538,-0.0799598271652737,0
33.426,0.4671052631578947,0.5648869647291688,-0.0903829193153153,0
33.478,0.4473684210526314,0.5803559609354129,-0.1026298299792349,0
33.529,0.4342105263157894,0.5869903713325191,-0.1165457590557172,0
33.58,0.4407894736842106,0.5870633900839214,-0.1319731701909754,0
33.631,0.4605263157894734,0.5959825908756361,-0.1487517907787472,0
33.682,0.4736842105263155,0.6247289355629817,-0.1667094573952487,0
33.733,0.401315789473684,0.6396857392041014,-0.1856982525416795,0
33.784,0.4473684210526314,0.6640760309906151,-0.2055394911924666,0
33.835,0.4342105263157894,0.7050216893141162,-0.2260634326939752,0
33.885,0.5197368421052633,0.7455502181156348,-0.2470961231775752,0
33.936,0.5065789473684208,0.7367867584670724,-0.2684700270872127,0
33.986,0.4671052631578947,0.7064522201240723,-0.2899982587740837,0
34.037,0.4539473684210526,0.7185804600595043,-0.3114987195853378,0
34.087,0.4473684210526314,0.7416868975415694,-0.3327945154085667,0
34.138,0.4671052631578947,0.7397424680350069,-0.3536920824520742,0
34.189,0.4144736842105261,0.7378969194627812,-0.3740103215226509,0
34.24,0.4605263157894734,0.6850630464576056,-0.393539628769282,0
34.291,0.3486842105263155,0.6324903803914785,-0.4120905874050531,0
34.342,0.4144736842105261,0.5704290655817927,-0.4299450091613597,0
34.393,0.3815789473684208,0.5472303410022359,-0.4471401364172389,0
34.444,0.4276315789473681,0.5514437300906593,-0.4633003326960516,0
34.494,0.4605263157894734,0.57863737765249,-0.4780616180417161,0
34.545,0.4868421052631579,0.5818954613990068,-0.4910733003353331,0
34.596,0.5065789473684208,0.5987010399888766,-0.5029933436681466,0
34.648,0.401315789473684,0.6238486622666727,-0.5138100856450265,0
34.699,0.4473684210526314,0.6663789148313686,-0.5234002960770994,0
34.75,0.401315789473684,0.691147459809288,-0.5316530673638082,0
34.801,0.4407894736842106,0.6773570056408578,-0.5384836381856373,0
34.852,0.4210526315789473,0.6880424125226653,-0.5437944823690428,0
34.903,0.4276315789473681,0.7180162282076248,-0.5474947025923553,0
34.954,0.4473684210526314,0.7111207365282185,-0.5495433852325493,0
35.006,0.4144736842105261,0.7042076686659208,-0.5498741331268393,0
35.056,0.4342105263157894,0.6804422977380442,-0.5484875868987789,0
35.107,0.4210526315789473,0.660570415820679,-0.5453382966095288,0
35.158,0.4802631578947367,0.6209341133528845,-0.5403968328612581,0
35.209,0.4210526315789473,0.598866557087851,-0.5336869803497546,0
35.26,0.4473684210526314,0.6134205297200113,-0.5252115206507577,0
35.311,0.3947368421052633,0.6431444670115194,-0.5149811259247394,0
35.361,0.4407894736842106,0.6425265921485049,-0.5030268242751372,0
35.412,0.4671052631578947,0.6465540951287942,-0.4875718685550285,0
35.463,0.4078947368421053,0.6534668813694533,-0.4690666014559008,0
35.514,0.4802631578947367,0.6804817390250999,-0.4479514929267059,0
35.564,0.4407894736842106,0.6783137578255463,-0.4246826747732091,0
35.615,0.513157894736842,0.638561705068788,-0.3996711241249322,0
35.666,0.4078947368421053,0.6395484946333854,-0.3733475902825254,0
35.717,0.4210526315789473,0.6793530491938597,-0.3461395286009416,0
35.768,0.4144736842105261,0.6904870389867787,-0.3184711004894334,0
35.819,0.4407894736842106,0.6907629037048277,-0.2907493497188333,0
35.87,0.4605263157894734,0.6674588758582732,-0.2634031135566181,0
35.921,0.388157894736842,0.6503485843834079,-0.2363245415732229,0
35.972,0.4210526315789473,0.6290158762350118,-0.2095870287644241,0
36.023,0.4210526315789473,0.6202899982800889,-0.1834283145117314,0
36.074,0.4934210526315787,0.6422480043738934,-0.1580992435319359,0
36.125,0.4407894736842106,0.6681701425698987,-0.1338419135324207,0
36.175,0.4407894736842106,0.6549547366517352,-0.1109086310136628,0
36.226,0.4144736842105261,0.6667400680446373,-0.0895010947361858,0
36.276,0.4539473684210526,0.663005175406002,-0.0698542783704416,0
36.328,0.4736842105263155,0.6791804507769106,-0.0521321150818945,0
36.379,0.3947368421052633,0.6772464437546686,-0.0365778310524644,0
36.429,0.4078947368421053,0.6428107506163171,-0.0233570844216881,0
36.481,0.3815789473684208,0.6486164768069583,-0.0126321104061455,0
36.532,0.4539473684210526,0.6816988378593161,-0.0045982579435466,0
36.583,0.4539473684210526,0.6840858794491163,0.0005809371546421,0
36.633,0.5065789473684208,0.6665935912515828,0.002769641888872,0
36.684,0.4605263157894734,0.6587423339223297,0.0017784767734383,0
36.735,0.4210526315789473,0.6709967424001904,-0.0025055834071192,0
36.786,0.3947368421052633,0.6623436038157702,-0.0106159994160743,0
36.836,0.4078947368421053,0.6513141301009626,-0.0241976990247754,0
36.887,0.4671052631578947,0.6613403431618097,-0.042967957618849,0
36.938,0.3618421052631579,0.6817310693724705,-0.0660418038285235,0
36.989,0.4473684210526314,0.6761352592817899,-0.0925974255080683,0
37.04,0.401315789473684,0.6674177388109539,-0.1221900199081438,0
37.091,0.4802631578947367,0.6415416120279871,-0.1543509790964008,0
37.142,0.4407894736842106,0.6502105031205798,-0.1886133858057892,0
37.193,0.4407894736842106,0.6303277604675398,-0.2245120134345546,0
37.243,0.4605263157894734,0.5808974663974307,-0.2615833260462419,0
37.294,0.3684210526315787,0.5886635155375721,-0.2993654783696926,0
37.345,0.401315789473684,0.6410062709647022,-0.337398315799049,0
37.396,0.4078947368421053,0.6473712922102677,-0.375223374393749,0
37.446,0.4671052631578947,0.6587998875437204,-0.4124048334415002,0
37.497,0.4144736842105261,0.65833755539929,-0.4484830446924659,0
37.547,0.4736842105263155,0.6575557573713509,-0.4829669327371173,0
37.599,0.4605263157894734,0.6608613416225767,-0.5154721417655015,0
37.649,0.4605263157894734,0.6622710394261059,-0.5451223466729849,0
37.7,0.388157894736842,0.6761360734522933,-0.5701680950767625,0
37.752,0.4210526315789473,0.6849984098654086,-0.5905601854353926,0
37.803,0.4671052631578947,0.6762049528257514,-0.6061749862040244,0
37.854,0.3947368421052633,0.6844165662476375,-0.616887919094681,0
37.906,0.4736842105263155,0.6881508561981844,-0.6226028535082895,0
37.956,0.401315789473684,0.7076478878036122,-0.6231858752959054,0
38.007,0.4736842105263155,0.7001776922801607,-0.620685084107301,0
38.058,0.5263157894736841,0.6723117814203903,-0.6153827989832317,0
38.108,0.4407894736842106,0.6787159515211965,-0.6075144904127638,0
38.159,0.3947368421052633,0.702481161002123,-0.597324414934715,0
38.21,0.3947368421052633,0.7049098952257578,-0.5850718970048412,0
38.26,0.4605263157894734,0.6891894613457434,-0.5710159048494465,0
38.311,0.4144736842105261,0.6614005055397547,-0.5554178800252616,0
38.362,0.4407894736842106,0.6530716182234226,-0.5385417374194454,0
38.413,0.375,0.6193641372121339,-0.5206538652495829,0
38.464,0.4539473684210526,0.5977978940713403,-0.5020098724701654,0
38.515,0.4276315789473681,0.5951485402425862,-0.482910360103665,0
38.566,0.4539473684210526,0.6184790827484209,-0.4635766914059671,0
38.617,0.4539473684210526,0.6132631882620732,-0.4443067034870638,0
38.668,0.4144736842105261,0.6114276147745656,-0.4253948908862697,0
38.72,0.4210526315789473,0.6134560836151427,-0.4071220952306955,0
38.771,0.388157894736842,0.6358314536109089,-0.3897353127675242,0
38.821,0.4671052631578947,0.6423822347818848,-0.373568392542468,0
38.873,0.4276315789473681,0.6047281071727622,-0.3588702426256622,0
38.923,0.4736842105263155,0.6201785936585757,-0.3463691052802686,0
38.975,0.4473684210526314,0.671066088882905,-0.3362464957193274,0
39.026,0.4144736842105261,0.6916658990500077,-0.3287349368216259,0
39.076,0.4539473684210526,0.7059930103543683,-0.3240770109420543,0
39.128,0.4407894736842106,0.711321826571498,-0.3224741511313929,0
39.178,0.4539473684210526,0.7092222969553887,-0.3241694998056132,0
39.229,0.401315789473684,0.685746778165058,-0.3294172745249688,0
39.281,0.4473684210526314,0.681702808291192,-0.3384190886328944,0
39.331,0.388157894736842,0.6995829421398094,-0.3514380834323156,0
39.382,0.4342105263157894,0.7079335724863408,-0.3682484975456082,0
39.432,0.4736842105263155,0.6846709738810695,-0.3870503365725541,0
39.483,0.4407894736842106,0.6788567442747703,-0.4076395796731229,0
39.534,0.4473684210526314,0.6468067540428779,-0.429803860398388,0
39.585,0.4078947368421053,0.6457947812847566,-0.4533513235789759,0
39.636,0.4407894736842106,0.6292579800621041,-0.4780324857647471,0
39.687,0.375,0.5877704292771034,-0.5036074580310002,0
39.739,0.4736842105263155,0.586592849330066,-0.5298302311508429,0
39.789,0.4276315789473681,0.6190337925357294,-0.5571138844402574,0
39.841,0.401315789473684,0.6208690241490198,-0.5867380038956271,0
39.893,0.4671052631578947,0.6212054909100148,-0.6179277782809562,0
39.944,0.4144736842105261,0.6352134135887089,-0.6498758740947166,0
39.995,0.4407894736842106,0.6632403965842539,-0.6818752026519694,0
40.047,0.4144736842105261,0.67245435298389,-0.7131103020798519,0
40.097,0.4934210526315787,0.6729707517788576,-0.7429122255653164,0
40.148,0.4934210526315787,0.6917412287525607,-0.7706164561363877,0
40.199,0.4868421052631579,0.7195809084781182,-0.7954041852772478,0
40.25,0.4407894736842106,0.7209806596641153,-0.8170253387241915,0
40.301,0.3947368421052633,0.7219656446244054,-0.8365539156282413,0
40.352,0.4276315789473681,0.7002159620812721,-0.8536773602838839,0
40.404,0.401315789473684,0.6931114173158323,-0.8681039368875285,0
40.454,0.4868421052631579,0.6572305317705815,-0.8796109955732792,0
40.505,0.4407894736842106,0.5968653006522809,-0.8878995530984066,0
40.556,0.4736842105263155,0.5921939840686359,-0.8928282236432181,0
40.608,0.4407894736842106,0.6282288225534712,-0.8926734107866401,0
40.658,0.4210526315789473,0.6369332622462435,-0.8858959294576048,0
40.71,0.4342105263157894,0.637914799587177,-0.8730359105778962,0
40.76,0.401315789473684,0.6259010497127466,-0.8546223452214989,0
40.811,0.4539473684210526,0.6243702791776843,-0.8311609621069334,0
40.862,0.4342105263157894,0.6290309926535053,-0.8031672592018846,0
40.913,0.4144736842105261,0.6445403302153394,-0.7711529160635808,0
40.964,0.4276315789473681,0.6569427385645138,-0.7356478512376068,0
41.014,0.4736842105263155,0.6834594203656511,-0.6971294547700497,0
41.065,0.513157894736842,0.6847349891997278,-0.6561142647923144,0
41.116,0.4144736842105261,0.6944561325071531,-0.6130696086386889,0
41.167,0.4342105263157894,0.708319142931803,-0.5685176402131906,0
41.217,0.4407894736842106,0.7255400012894655,-0.5229503025144564,0
41.268,0.4605263157894734,0.7162922494838394,-0.4768397065801568,0
41.318,0.4078947368421053,0.6755410476759885,-0.4306453402322192,0
41.369,0.4144736842105261,0.6745684424180303,-0.3848877092137877,0
41.421,0.388157894736842,0.6731668666488264,-0.3400112682177409,0
41.472,0.4407894736842106,0.659066812705212,-0.2964991722640615,0
41.523,0.4144736842105261,0.646549746094649,-0.2543358719311772,0
41.574,0.4539473684210526,0.6029210698902586,-0.2138786834182182,0
41.625,0.4671052631578947,0.6015319207008762,-0.175490578677059,0
41.676,0.401315789473684,0.5944239544734693,-0.1395492928165751,0
41.727,0.4144736842105261,0.5961922027750169,-0.1063608726847546,0
41.777,0.4605263157894734,0.6092162648807402,-0.0763037384944453,0
41.828,0.4934210526315787,0.6434045729828756,-0.0496682128765879,0
41.879,0.4407894736842106,0.6454482988211783,-0.0268296942259653,0
41.93,0.4802631578947367,0.6564887041720519,-0.0080871098221395,0
41.981,0.4473684210526314,0.6846374587635443,0.0062590071783197,0
42.031,0.4210526315789473,0.7173488550577495,0.0158922399909782,0
42.082,0.4539473684210526,0.7154442952461177,0.0198363973787047,0
42.133,0.4078947368421053,0.6757955429961645,0.0163697780958109,0
42.184,0.5,0.6802308909655688,0.0056744844991225,0
42.234,0.4276315789473681,0.6992138792452632,-0.0120793070027374,0
42.285,0.4276315789473681,0.6991514979148545,-0.0367333459493486,0
42.336,0.401315789473684,0.7011761685136951,-0.0681349343597155,0
42.387,0.4671052631578947,0.6618720095863668,-0.1053027059972087,0
42.438,0.4407894736842106,0.6417436247206169,-0.1459241018705652,0
42.489,0.4605263157894734,0.614894108208889,-0.1893467724662505,0
42.54,0.4539473684210526,0.6064776874600248,-0.2349381694751828,0
42.592,0.388157894736842,0.6139473169091849,-0.2820152298157885,0
42.643,0.4342105263157894,0.6376157050638438,-0.3299512463179472,0
42.694,0.4276315789473681,0.6302557263229724,-0.3779975728074611,0
42.745,0.4539473684210526,0.643868320515971,-0.4254374603456778,0
42.796,0.4473684210526314,0.6565485703383118,-0.4716101640180885,0
42.847,0.4736842105263155,0.6884105094125197,-0.5157830030928805,0
42.898,0.4539473684210526,0.6953451760717633,-0.5568556748500681,0
42.948,0.4078947368421053,0.6585454113556636,-0.593040386200439,0
43.0,0.4539473684210526,0.6570504673123381,-0.6239135946716201,0
43.05,0.4078947368421053,0.6732476608410038,-0.6490487483669287,0
43.102,0.4342105263157894,0.6789041549816482,-0.6680295732018036,0
43.152,0.388157894736842,0.6683948210497191,-0.6803370239424023,0
43.203,0.4342105263157894,0.6632124359943995,-0.6873682043675888,0
43.254,0.4276315789473681,0.6663629838312255,-0.6909940841305926,0
43.305,0.4671052631578947,0.6433428778040551,-0.6914145819448976,0
43.356,0.4934210526315787,0.6339651634597753,-0.6888087092744346,0
43.407,0.4342105263157894,0.6433424005735143,-0.6834101206757723,0
43.458,0.4407894736842106,0.672883101950638,-0.6754447229007843,0
43.509,0.375,0.6695190187108775,-0.6651258574008694,0
43.56,0.4473684210526314,0.6671705858468371,-0.6526645279114556,0
43.611,0.4539473684210526,0.6566604980119862,-0.6383078829565381,0
43.661,0.4736842105263155,0.6771750552314674,-0.6223055161984765,0
43.712,0.4210526315789473,0.6616783070482359,-0.6048944559991543,0
43.763,0.4144736842105261,0.6026978950699754,-0.5863362332576323,0
43.813,0.4342105263157894,0.6066456350992702,-0.566879813572494,0
43.864,0.4276315789473681,0.6518125556094129,-0.5467902884889777,0
43.915,0.4539473684210526,0.6481312388449889,-0.5263738993995848,0
43.965,0.3684210526315787,0.63919655253992,-0.5058756123072972,0
44.016,0.4144736842105261,0.634021525213618,-0.4855785765605633,0
44.067,0.4210526315789473,0.6421761395819123,-0.4657718745114263,0
44.117,0.4934210526315787,0.6443615334253814,-0.4469918062839815,0
44.168,0.4473684210526314,0.6459843673585479,-0.4295172162507896,0
44.218,0.4539473684210526,0.6523682443186745,-0.413606970026724,0
44.269,0.4407894736842106,0.6686699347370183,-0.3994909517171061,0
44.319,0.4539473684210526,0.6573345434544647,-0.3874865374399534,0
44.37,0.4144736842105261,0.6693942003353114,-0.3778217456017589,0
44.421,0.375,0.6673077275132684,-0.3708334861809241,0
44.472,0.4276315789473681,0.6796405218306784,-0.3667626117994849,0
44.523,0.4276315789473681,0.6713387836227622,-0.3659296504363984,0
44.574,0.4934210526315787,0.6328950899958062,-0.3686510561475655,0
44.625,0.4342105263157894,0.6417774174616533,-0.3752411417324826,0
44.676,0.4868421052631579,0.6641778180863718,-0.3851892780872994,0
44.726,0.4736842105263155,0.653762571837056,-0.3967602717980356,0
44.777,0.4736842105263155,0.6430910403000341,-0.4097816987123912,0
44.827,0.4539473684210526,0.6340105601757526,-0.4240731983189676,0
44.878,0.3947368421052633,0.6474630019254202,-0.4394367403009844,0
44.928,0.4144736842105261,0.6452880581107444,-0.4556670158221589,0
44.979,0.4210526315789473,0.634344899060027,-0.4725778690259357,0
45.029,0.4868421052631579,0.6362496362701187,-0.4899163121169505,0
45.08,0.4539473684210526,0.6557397356129817,-0.507609922501687,0
45.131,0.4671052631578947,0.6559903299632388,-0.525553208092618,0
45.181,0.375,0.6538215478014534,-0.5434028630964691,0
45.232,0.4473684210526314,0.6535220910818652,-0.5608256558526064,0
45.283,0.4605263157894734,0.6799391248946494,-0.5775071924644246,0
45.334,0.5723684210526314,0.6726343231239544,-0.593075665327093,0
45.384,0.4605263157894734,0.630644317642954,-0.6071700424216919,0
45.436,0.401315789473684,0.6403571110293417,-0.619455273313525,0
45.486,0.4144736842105261,0.6633620441952183,-0.6300320259664245,0
45.537,0.388157894736842,0.6440002787174633,-0.6400008600901572,0
45.588,0.4605263157894734,0.6476385007622187,-0.6493389323578556,0
45.639,0.4078947368421053,0.6202975841671232,-0.6580091640674144,0
45.689,0.4210526315789473,0.5960673928829748,-0.6659876316747844,0
45.74,0.401315789473684,0.5824105931726787,-0.6732581508679178,0
45.792,0.4539473684210526,0.5644861036346197,-0.6798088714931156,0
45.842,0.4210526315789473,0.5779435336227589,-0.6856226002506609,0
45.893,0.4605263157894734,0.6017963518276694,-0.6906982596633624,0
45.943,0.4868421052631579,0.5998330105215579,-0.6950358714749318,0
45.994,0.4539473684210526,0.6180604678394216,-0.6984294000256239,0
46.045,0.4671052631578947,0.640624246818889,-0.700627531594403,0
46.095,0.4078947368421053,0.6730658080068452,-0.7017505549905376,0
46.146,0.4407894736842106,0.684782845728914,-0.7019091681089278,0
46.197,0.401315789473684,0.6892781053722391,-0.7012332395754304,0
46.247,0.4671052631578947,0.6905239368970415,-0.6998347409092038,0
46.298,0.4342105263157894,0.7031064407684418,-0.6978448143603633,0
46.349,0.4736842105263155,0.7080300956115784,-0.6953767050723256,0
46.399,0.4144736842105261,0.7055407309166688,-0.6925628289194641,0
46.45,0.4078947368421053,0.6562198194561559,-0.6895278976125137,0
46.501,0.4210526315789473,0.6201263898688382,-0.686380276292798,0
46.552,0.375,0.5770319422883695,-0.6832694010867293,0
46.603,0.4605263157894734,0.5477192392571865,-0.6803136235638545,0
46.653,0.4210526315789473,0.5559006975410854,-0.6776402739129372,0
46.704,0.4342105263157894,0.5692001136189976,-0.675083750579843,0
46.755,0.4078947368421053,0.5630154670953338,-0.6726909129253793,0
46.805,0.4605263157894734,0.5704554485840668,-0.670512707699451,0
46.856,0.4605263157894734,0.5669628880988173,-0.6686164766915781,0
46.908,0.4868421052631579,0.577991889126352,-0.6670717093440859,0
46.958,0.4539473684210526,0.6090913307507272,-0.6661318177073337,0
47.009,0.4144736842105261,0.6166577281441921,-0.6675748861300284,0
47.061,0.4407894736842106,0.6172730743802614,-0.6710864192188104,0
47.111,0.375,0.6643774874208511,-0.6763285729756816,0
47.162,0.5,0.7008293640505254,-0.6829684498187087,0
47.213,0.5,0.7236593470963706,-0.6906982233141792,0
47.265,0.4868421052631579,0.7188396383524975,-0.6991863461530448,0
47.315,0.4539473684210526,0.7106369317143336,-0.7082270438472051,0
47.366,0.4407894736842106,0.6986440684274332,-0.7175160993235259,0
47.417,0.4539473684210526,0.6891466770610458,-0.7268002857159579,0
47.468,0.3947368421052633,0.6955083171427793,-0.7358484135052341,0
47.519,0.4605263157894734,0.6706802600741396,-0.7444415970725919,0
47.57,0.388157894736842,0.6411426455286796,-0.7523402637253718,0
47.621,0.4671052631578947,0.630132285798672,-0.7594306135918596,0
47.672,0.4934210526315787,0.5515818911440309,-0.7652665852788121,0
47.723,0.4736842105263155,0.5331949345724794,-0.7695411009044673,0
47.775,0.4473684210526314,0.5431621944536632,-0.7719959354573771,0
47.825,0.3684210526315787,0.5166560052660276,-0.7714364114959964,0
47.876,0.4407894736842106,0.4969483239700571,-0.7669508894795813,0
47.927,0.4276315789473681,0.5428847338472597,-0.7587530393331943,0
47.978,0.4868421052631579,0.5758282325690114,-0.747062068067454,0
48.028,0.4473684210526314,0.601804883107018,-0.7320746236696944,0
48.079,0.513157894736842,0.6471824415974119,-0.7139933397870883,0
48.13,0.4671052631578947,0.7289671061525238,-0.6930263871523696,0
48.18,0.5,0.7750442659554623,-0.6693593774749831,0
48.231,0.5263157894736841,0.8035077806039761,-0.6431799717334981,0
48.281,0.5065789473684208,0.8159078859633135,-0.6146832081557341,0
48.332,0.4342105263157894,0.7636631401575571,-0.5840553469067131,0
48.383,0.4078947368421053,0.691301660326175,-0.5514665314950904,0
48.434,0.4802631578947367,0.6368956317918653,-0.5171007363628248,0
48.485,0.4276315789473681,0.5324748866714581,-0.481127854232581,0
48.535,0.5,0.4834271751605602,-0.4437173098028093,0
48.587,0.4539473684210526,0.4900750952730064,-0.40529169054548,0
48.638,0.5394736842105261,0.4488933730691554,-0.3664197827723736,0
48.689,0.5065789473684208,0.4510621252946303,-0.3273840897096063,0
48.74,0.4407894736842106,0.4792006925464413,-0.2884662524096342,0
48.791,0.4802631578947367,0.4795133481143183,-0.249936859906549,0
48.841,0.4078947368421053,0.5248231428570865,-0.2120736151415752,0
48.893,0.4473684210526314,0.5894005265834895,-0.1751495776225113,0
48.943,0.4078947368421053,0.6518010405450898,-0.1394501793216682,0
48.995,0.5657894736842106,0.6899924483452182,-0.10525505875037,0
49.046,0.5592105263157894,0.7307467596073733,-0.0728445146430205,0
49.097,0.5394736842105261,0.7432235491901216,-0.0425078121494246,0
49.148,0.5,0.7589483582757077,-0.0145167999057371,0
49.199,0.4934210526315787,0.7652559034093941,0.0108458252161196,0
49.249,0.5394736842105261,0.7719890999206898,0.0335960867219031,0
49.3,0.4078947368421053,0.7882464100954043,0.0534356125981849,0
49.351,0.375,0.7481481817615657,0.0700187434213677,0
49.401,0.3684210526315787,0.6937826162321692,0.0829870324063737,0
49.452,0.4605263157894734,0.6026403480113953,0.0919911456607751,0
49.503,0.4539473684210526,0.5305192871518254,0.0966802430880022,0
49.554,0.4276315789473681,0.514073404855296,0.0969615642115813,0
49.604,0.3355263157894734,0.4736755868801623,0.094684478661529,0
49.655,0.3552631578947367,0.4323575274923169,0.0899804511295938,0
49.706,0.4342105263157894,0.4106252782533439,0.082994601458981,0
49.757,0.4473684210526314,0.4529664428752136,0.0738644966026749,0
49.808,0.4934210526315787,0.5109218083753398,0.0627736917999217,0
49.859,0.4210526315789473,0.5351208094020755,0.0498709444894513,0
49.91,0.4934210526315787,0.5697414640906938,0.0354350277358825,0
49.961,0.4539473684210526,0.6119821544220869,0.0196602482700183,0
50.011,0.4671052631578947,0.6043258780192584,0.0027925150978163,0
50.062,0.4342105263157894,0.6195808773562995,-0.0149029936344167,0
50.113,0.4276315789473681,0.67566475715752,-0.03315392987591,0
50.165,0.5,0.7238366286642068,-0.0516813014358068,0
50.216,0.4144736842105261,0.7292629623370908,-0.0700908232920523,0
50.267,0.4276315789473681,0.7201779914117639,-0.0881241201384686,0
50.318,0.375,0.6916745009897529,-0.1053337487622738,0
50.369,0.4407894736842106,0.6478400519768674,-0.1213714550791853,0
50.419,0.4342105263157894,0.5984161326564846,-0.1370440596442392,0
50.47,0.513157894736842,0.5516570383199668,-0.1537042830771677,0
50.52,0.4473684210526314,0.5066111415994952,-0.1727563315212825,0
50.571,0.3815789473684208,0.4946233574981249,-0.193799364396868,0
50.622,0.4276315789473681,0.4771499704353429,-0.216432214065394,0
50.673,0.4473684210526314,0.4605314368107641,-0.240317604748101,0
50.724,0.4736842105263155,0.4656045483229482,-0.2650942773881954,0
50.774,0.401315789473684,0.4827391597378314,-0.2904259658128798,0
50.825,0.4210526315789473,0.4946363347670546,-0.3159843808354141,0
50.876,0.3947368421052633,0.5303638653098053,-0.3414545139116201,0
50.926,0.4407894736842106,0.5787250496604363,-0.3665281834558183,0
50.977,0.4276315789473681,0.6020986493367155,-0.3909222007663282,0
51.027,0.4605263157894734,0.6044998888782289,-0.4143613541275246,0
51.078,0.736842105263158,0.6468349853201951,-0.4365583925235312,0
51.129,0.6973684210526314,0.6698015255060752,-0.4572952604547409,0
51.18,0.5197368421052633,0.6687810885029188,-0.4763363728275702,0
51.231,0.388157894736842,0.6479175616761005,-0.4934341052481825,0
51.282,0.388157894736842,0.638755942294222,-0.5084100288390108,0
51.333,0.3684210526315787,0.6150251762547098,-0.5210617314444548,0
51.383,0.4671052631578947,0.5518915063189868,-0.5312117937929106,0
51.434,0.4539473684210526,0.4560279028899507,-0.5370828367940834,0
51.485,0.2697368421052633,0.4130433369070362,-0.5381229206108087,0
51.535,0.1710526315789473,0.4255234639835616,-0.5346588068193716,0
51.586,0.3223684210526314,0.449892444547314,-0.5270158994964993,0
51.637,0.4342105263157894,0.4425560702692264,-0.5155129415628608,0
51.688,0.6842105263157894,0.4694540848754607,-0.5004620147830676,0
51.738,0.638157894736842,0.4870234575898167,-0.4821620860816173,0
51.789,0.4342105263157894,0.5205012981673908,-0.4609171734683848,0
51.84,0.4407894736842106,0.526786352042653,-0.4373831743408489,0
51.89,0.401315789473684,0.5664550839067237,-0.4119500762390613,0
51.941,0.4407894736842106,0.5721350963148455,-0.3850022181854333,0
51.992,0.3947368421052633,0.5951809900404157,-0.3568950810045166,0
52.043,0.4605263157894734,0.6092892883705099,-0.3279804314272949,0
52.094,0.4605263157894734,0.5805341892876125,-0.2985915992964951,0
52.145,0.401315789473684,0.5157349459605226,-0.2690849195071867,0
52.196,0.4276315789473681,0.4532971093577464,-0.2398009136249848,0
52.247,0.375,0.4336387900130402,-0.2110616663272497,0
52.298,0.4078947368421053,0.3875403326454872,-0.183232930842387,0
52.348,0.3684210526315787,0.3820522163224472,-0.1566042923816919,0
52.399,0.4473684210526314,0.4259485338866079,-0.1315134853130914,0
52.45,0.3552631578947367,0.4357557839114351,-0.1082824306750587,0
52.5,0.4539473684210526,0.4326360735684739,-0.0872499989112003,0
52.551,0.5855263157894735,0.4599876191809638,-0.0687057144785834,0
52.602,0.9473684210526314,0.5381875854627121,-0.0529605318449966,0
52.653,1.0,0.5482483634825898,-0.0403423548833603,0
52.703,0.8486842105263155,0.6373618037566026,-0.0311150186853712,0
52.754,0.6907894736842106,0.6198911704337914,-0.0255698440006533,0
52.805,0.375,0.6481524803486381,-0.024048633641049,0
52.856,0.3552631578947367,0.6048077609643717,-0.0276025139673996,0
52.907,0.1907894736842106,0.5563814246261858,-0.0368976615970018,0
52.958,0.0657894736842106,0.4943970490583197,-0.0519486392829069,0
53.009,0.1973684210526314,0.4481681066097047,-0.0727776080632205,0
53.06,0.3618421052631579,0.3892144468324472,-0.0989040163503953,0
53.111,0.5,0.2623091350119662,-0.1284588460506142,0
53.163,0.4078947368421053,0.2686526230834228,-0.1610534527594147,0
53.214,0.5,0.2985110084318233,-0.1963213728888742,0
53.265,0.401315789473684,0.3303660082943867,-0.2338261770418337,0
53.316,0.4736842105263155,0.3602980087688817,-0.2731600988574199,0
53.367,0.4934210526315787,0.4102631452121632,-0.3139001454555084,0
53.418,0.4210526315789473,0.483127317142939,-0.3556146945359795,0
53.469,0.5,0.5558553045925609,-0.3978580728631904,0
53.52,0.5,0.6467898346432263,-0.4401879502949692,0
53.57,0.4934210526315787,0.69301961522176,-0.4821467701698936,0
53.621,0.3486842105263155,0.7066804040377329,-0.5232629248910154,0
53.672,0.5065789473684208,0.6493926260729176,-0.5630447851158713,0
53.723,0.4934210526315787,0.5747149513580181,-0.6009109680880627,0
53.773,0.3355263157894734,0.5048192054044975,-0.6363979097993635,0
53.824,0.0,0.4110788395196825,-0.6690603407165947,0
53.875,0.1907894736842106,0.3187885846169335,-0.698393257685884,0
53.925,0.3947368421052633,0.2694837178270179,-0.723901163185056,0
53.976,0.5657894736842106,0.2912132369883385,-0.7450874517027162,0
54.028,0.7697368421052628,0.3602240029937529,-0.7633930244884739,0
54.078,0.9473684210526314,0.4670558713312621,-0.779555087276057,0
54.13,0.8157894736842106,0.5231947613162267,-0.7935864746392987,0
54.181,0.7434210526315788,0.6073929028450193,-0.80550146093243,0
54.232,0.736842105263158,0.7008621566882697,-0.8153337421109415,0
54.283,0.6710526315789473,0.6884058817628407,-0.8231211416178263,0
54.334,0.5526315789473681,0.7503563669684328,-0.8289176059477095,0
54.385,0.4539473684210526,0.7710459212553282,-0.832786630598251,0
54.436,0.3684210526315787,0.7005841184455337,-0.834795861605274,0
54.487,0.4342105263157894,0.6990327606648821,-0.835051524453418,0
54.537,0.4473684210526314,0.7636247785153906,-0.8336243495292499,0
54.588,0.5197368421052633,0.6759507473671442,-0.8310271900413035,0
54.639,0.4407894736842106,0.3931454698618106,-0.8278235210296914,0
54.69,0.4078947368421053,0.1816734722139678,-0.8239622882115003,0
54.74,0.3815789473684208,0.1160120791099462,-0.8193635714335414,0
54.791,0.4342105263157894,0.1863190749313911,-0.8140129076871356,0
54.842,0.4671052631578947,0.3069498468868915,-0.8078669680933268,0
54.892,0.4276315789473681,0.4188047214708496,-0.8008801065807181,0
54.943,0.4802631578947367,0.4942280755006072,-0.7931175848644012,0
54.994,0.4078947368421053,0.5681278881448651,-0.7846162691558323,0
55.045,0.4342105263157894,0.6584478738826188,-0.7754099155617566,0
55.095,0.3355263157894734,0.7098626163252229,-0.7655724119781533,0
55.146,0.4407894736842106,0.7082058071890863,-0.755215546189034,0
55.196,0.401315789473684,0.6687158794687179,-0.7444486474913308,0
55.248,0.4210526315789473,0.6665491923621583,-0.7333741060893098,0
55.299,0.4276315789473681,0.6440743850600104,-0.7221581490918263,0
55.35,0.4078947368421053,0.5893123549866363,-0.7109683741086155,0
55.402,0.4276315789473681,0.5479786888469794,-0.6999881937620034,0
55.452,0.4342105263157894,0.5500513455219795,-0.6884408247116534,0
55.503,0.4407894736842106,0.5501971092152158,-0.6757175953919963,0
55.553,0.3815789473684208,0.5462683231794587,-0.6607673163442351,0
55.604,0.4671052631578947,0.5797467713953848,-0.6426318909644542,0
55.656,0.4276315789473681,0.6398997254844143,-0.6216802475328906,0
55.707,0.4078947368421053,0.6492350961766228,-0.5982899961713726,0
55.758,0.4144736842105261,0.6527411018865457,-0.5727849250248238,0
55.809,0.4276315789473681,0.6287284209056572,-0.5455017284300696,0
55.861,0.4671052631578947,0.6081806680819369,-0.5167728979551232,0
55.912,0.3618421052631579,0.6041474022733534,-0.4869081527864629,0
55.964,0.4342105263157894,0.5902244501204377,-0.4562118337580285,0
56.015,0.4407894736842106,0.551472601366078,-0.4249774818356922,0
56.067,0.4144736842105261,0.5633523708477912,-0.393474953506852,0
56.118,0.4736842105263155,0.589267128010832,-0.3619943549862063,0
56.168,0.401315789473684,0.5550147875231766,-0.3307967080759457,0
56.219,0.4802631578947367,0.5654244734205242,-0.3001388318094493,0
56.27,0.401315789473684,0.6058037284360739,-0.2703206950605601,0
56.32,0.4407894736842106,0.6247276759677824,-0.2416659960468896,0
56.371,0.4276315789473681,0.6497834805736329,-0.2144672389496404,0
56.422,0.4802631578947367,0.6651440166921492,-0.188943874046493,0
56.473,0.4407894736842106,0.659080775349798,-0.1653234471340199,0
56.524,0.4342105263157894,0.6611552210803292,-0.1438298890318465,0
56.575,0.4934210526315787,0.6833907310825916,-0.124687703178552,0
56.625,0.401315789473684,0.6598440169788145,-0.1080774436340359,0
56.677,0.4210526315789473,0.6444213641654316,-0.0942105171857221,0
56.728,0.3947368421052633,0.6462271433405603,-0.0832423856782225,0
56.779,0.5526315789473681,0.6099563948672874,-0.0753518775381412,0
56.83,0.4605263157894734,0.5911076980775885,-0.0707189816028988,0
56.881,0.4078947368421053,0.5971303195536295,-0.0694770496241319,0
56.932,0.4144736842105261,0.572920290461279,-0.0719588448379302,0
56.982,0.3552631578947367,0.5663995689926817,-0.0791793852280813,0
57.033,0.5065789473684208,0.5903890927365008,-0.0910356122461037,0
57.084,0.4144736842105261,0.6178364389361951,-0.1074192330443315,0
57.135,0.4934210526315787,0.6238492343817953,-0.1282270676366534,0
57.186,0.4210526315789473,0.63136375777388,-0.1528523840232876,0
57.237,0.4144736842105261,0.6328217616375427,-0.1804420822774242,0
57.288,0.4473684210526314,0.6402116432510598,-0.2106464136335581,0
57.34,0.4605263157894734,0.6490326843123964,-0.2431544886274901,0
57.391,0.4539473684210526,0.6555378421513545,-0.2775975739039884,0
57.442,0.4342105263157894,0.6744101308744762,-0.3136510516345518,0
57.493,0.4605263157894734,0.6881527867140854,-0.3509838180228306,0
57.544,0.4342105263157894,0.6692141240986423,-0.3892094868099836,0
57.596,0.4671052631578947,0.6320023322201749,-0.4279547752729056,0
57.646,0.388157894736842,0.6363807741005674,-0.4668641261244568,0
57.697,0.4342105263157894,0.6567690897389186,-0.505524319437453,0
57.748,0.4210526315789473,0.6229255561414104,-0.5435404950458718,0
57.799,0.401315789473684,0.6069162605906384,-0.5807297542270395,0
57.849,0.4407894736842106,0.612813083309023,-0.6167065547919837,0
57.9,0.3684210526315787,0.6259753877304407,-0.6509800548273703,0
57.95,0.4276315789473681,0.613937532969986,-0.6830978409889932,0
58.001,0.375,0.5913651277772818,-0.7125188052790805,0
58.052,0.4539473684210526,0.5970442550670086,-0.7387645496575517,0
58.102,0.4342105263157894,0.6068334732047599,-0.7613214580928358,0
58.153,0.4539473684210526,0.587663998214176,-0.7808823782566228,0
58.204,0.4671052631578947,0.5956873323300041,-0.7984894296208547,0
58.255,0.4342105263157894,0.6200662937816178,-0.814097319810098,0
58.306,0.4736842105263155,0.6580146414346826,-0.8276572936840949,0
58.356,0.4407894736842106,0.6664556389960266,-0.8391574670788404,0
58.407,0.4407894736842106,0.646016840207694,-0.8485885012957677,0
58.458,0.375,0.6517264821854999,-0.8559530740968395,0
58.509,0.4671052631578947,0.6785014511075448,-0.8612658797045487,0
58.56,0.401315789473684,0.669929695194894,-0.8645536288019147,0
58.611,0.4539473684210526,0.6771967672470217,-0.8658468216978701,0
58.661,0.4473684210526314,0.6652333079551296,-0.8655685510182916,0
58.712,0.4671052631578947,0.6618610745055231,-0.8639733170596255,0
58.763,0.4736842105263155,0.6515893935085534,-0.8610096239643508,0
58.814,0.4342105263157894,0.6493534552731542,-0.8566432677725415,0
58.865,0.4078947368421053,0.6613709363776161,-0.8508573364218697,0
58.916,0.3684210526315787,0.6689137990775339,-0.8436759158075733,0
58.966,0.5197368421052633,0.649709492520798,-0.8350736555536797,0
59.017,0.4605263157894734,0.6439068459743953,-0.8251050010003114,0
59.068,0.4868421052631579,0.6293037752919215,-0.813822207675525,0
59.119,0.4144736842105261,0.6466776024760782,-0.8012948230049739,0
59.169,0.401315789473684,0.6425190583386856,-0.7875859802519358,0
59.22,0.4473684210526314,0.6022109832063126,-0.7728191266861233,0
59.271,0.4144736842105261,0.609973072550738,-0.7570918137052096,0
59.322,0.4539473684210526,0.6465060199376154,-0.7405415153414487,0
59.372,0.4078947368421053,0.6300057160461594,-0.7233485467612075,0
59.423,0.4539473684210526,0.61795174749419,-0.7056619959981343,0
59.474,0.375,0.6313929927718499,-0.6876708737204549,0
59.525,0.4868421052631579,0.6458065036708993,-0.6693742314356828,0
59.577,0.4736842105263155,0.6381670452554415,-0.6498293692825674,0
59.628,0.4671052631578947,0.6378991919642278,-0.6290046472874196,0
59.679,0.4473684210526314,0.6689766149202921,-0.6068561208756178,0
59.73,0.401315789473684,0.6772287436570607,-0.5833097693356326,0
59.781,0.4276315789473681,0.6668243186989882,-0.558427270177912,0
59.832,0.4407894736842106,0.6726347596510853,-0.5322385816631163,0
59.882,0.4802631578947367,0.6608168721649899,-0.5048011700932353,0
59.933,0.4078947368421053,0.6700545003271999,-0.476178968537114,0
59.984,0.4671052631578947,0.6387925228901182,-0.4464452731179291,0
60.035,0.4210526315789473,0.5928807642800598,-0.4156745905002887,0
60.086,0.3947368421052633,0.6003985817603612,-0.3839329825120825,0
60.137,0.4342105263157894,0.6571913734057554,-0.3513311637646974,0
60.188,0.4210526315789473,0.6654062638169879,-0.3179479825807769,0
60.239,0.513157894736842,0.6662853380528453,-0.2839069400664602,0
60.29,0.4078947368421053,0.6709780599871696,-0.2493198591077452,0
60.341,0.4539473684210526,0.6753402118926819,-0.2143170649131769,0
60.392,0.4539473684210526,0.672021545759466,-0.1787281046865469,0
60.443,0.4802631578947367,0.6720698078123859,-0.1425225175061868,0
60.494,0.4407894736842106,0.6815492512059909,-0.1057970806073642,0
60.545,0.388157894736842,0.6834332825902215,-0.0686132935845629,0
60.595,0.4078947368421053,0.6743641726071217,-0.0310448140936805,0
60.646,0.4078947368421053,0.6725559392817448,0.006830768982581,0
60.697,0.4802631578947367,0.6461166629393877,0.0449392166012727,0
60.747,0.3552631578947367,0.6510905893398912,0.0831823400691136,0
60.798,0.4342105263157894,0.6376125415646352,0.1214708339058834,0
60.849,0.4210526315789473,0.6066830510328062,0.15971146140456,0
60.899,0.513157894736842,0.6196627970632432,0.1978343571270144,0
60.95,0.4671052631578947,0.6690202854838267,0.2357093707985651,0
61.001,0.4144736842105261,0.6742572340458769,0.2732143972457006,0
61.053,0.4407894736842106,0.6672784516368311,0.3102788778658727,0
61.104,0.4078947368421053,0.6619195278301155,0.3467690955386162,0
61.155,0.4605263157894734,0.6739620161908622,0.3845040353595936,0
61.206,0.3815789473684208,0.6664719648304952,0.4230888518052285,0
61.257,0.4210526315789473,0.6537773396526427,0.4624036399554949,0
61.308,0.401315789473684,0.6552364812605688,0.5023409251881281,0
61.358,0.4736842105263155,0.6630013885940035,0.5425071430230788,0
61.409,0.4736842105263155,0.6638326833313051,0.5825793569667264,0
61.459,0.4539473684210526,0.6486910071505491,0.6222485445693282,0
61.51,0.4276315789473681,0.633417445500114,0.6611730251762551,0
61.561,0.401315789473684,0.6532512366482814,0.6990585594232956,0
61.613,0.4407894736842106,0.6444892475077104,0.735606507284269,0
61.664,0.401315789473684,0.6062253673840808,0.7705888567194177,0
61.714,0.4868421052631579,0.6223540281050179,0.8037447386273624,0
61.765,0.401315789473684,0.6792713474489065,0.8349072974459064,0
61.816,0.4473684210526314,0.6936354596931905,0.8638251774555656,0
61.867,0.4736842105263155,0.7037968813757477,0.8903461073229364,0
61.918,0.4407894736842106,0.691170984643102,0.9142601456826482,0
61.968,0.4539473684210526,0.6833695777861546,0.9354730101019366,0
62.019,0.4210526315789473,0.6713181504445626,0.9538605552673114,0
62.07,0.4868421052631579,0.6584911740115904,0.9692694222329584,0
62.121,0.388157894736842,0.6617728556455765,0.9816619109856726,0
62.171,0.3947368421052633,0.6686760432361034,0.9909704586315232,0
62.222,0.388157894736842,0.6556132933445479,0.9971216741970051,0
62.274,0.4736842105263155,0.658447780848127,1.0,0
62.324,0.4671052631578947,0.6503777000806577,0.9994980196928824,0
62.375,0.4539473684210526,0.6692361258457646,0.9955851932463498,0
62.426,0.4736842105263155,0.6648803782777237,0.9882620783906256,0
62.477,0.4407894736842106,0.6283796153375231,0.9775357089179116,0
62.528,0.4802631578947367,0.6491051613156988,0.9634073737481588,0
62.579,0.4078947368421053,0.700129821090379,0.9459476455774882,0
62.629,0.4605263157894734,0.706391691831625,0.9252162813828756,0
62.68,0.401315789473684,0.6934740653298196,0.9012696375473253,0
62.732,0.4802631578947367,0.7009351895032546,0.87421989715099,0
62.783,0.4605263157894734,0.7155630762806465,0.8441351653461822,0
62.834,0.4078947368421053,0.695183469665363,0.8112144026307679,0
62.884,0.4276315789473681,0.6782659835346148,0.7755768189066923,0
62.935,0.3947368421052633,0.67967162493796,0.7374087624305297,0
62.985,0.4671052631578947,0.6853207378942331,0.6968760361227209,0
63.037,0.4144736842105261,0.6654621596558805,0.6541583340908566,0
63.087,0.4473684210526314,0.647295715766407,0.6089202165178791,0
63.138,0.4276315789473681,0.6187616005206462,0.5600405478408628,0
63.188,0.4539473684210526,0.6330525629867905,0.5082111742297224,0
63.239,0.4078947368421053,0.6076363752669038,0.4540871870806322,0
63.29,0.4407894736842106,0.5492789404283736,0.3983232535301244,0
63.34,0.4342105263157894,0.5669080664281073,0.3416124616634208,0
63.391,0.4210526315789473,0.6320131683465854,0.2846308427166732,0
63.442,0.4473684210526314,0.6434731888603614,0.2280714129135361,0
63.493,0.388157894736842,0.6536257877880957,0.1725693924294473,0
63.543,0.4736842105263155,0.6682058373178726,0.1188188044713194,0
63.594,0.4407894736842106,0.6835709640261526,0.0675176566714683,0
63.644,0.4473684210526314,0.6825116458989579,0.0193217143585959,0
63.695,0.4144736842105261,0.6832928720876621,-0.0250945341145714,0
63.746,0.4605263157894734,0.7056361101150854,-0.0674085748155608,0
63.796,0.3947368421052633,0.7250644499062228,-0.1075308574994187,0
63.847,0.4605263157894734,0.7176524376487758,-0.1452872755164271,0
63.898,0.5197368421052633,0.7122463489589375,-0.18050074588254,0
63.949,0.4276315789473681,0.7024461826863282,-0.2129831349625175,0
64.0,0.4276315789473681,0.7063041878214862,-0.2425986079097852,0
64.05,0.3815789473684208,0.6834492196984465,-0.2692707961789091,0
64.102,0.4407894736842106,0.6438110816800808,-0.2927612819296965,0
64.153,0.388157894736842,0.6476562173305861,-0.3122462101700782,0
64.204,0.4407894736842106,0.6743469899132126,-0.3278033095146528,0
64.255,0.4407894736842106,0.6628705444534512,-0.3395721957124098,0
64.306,0.4934210526315787,0.6467618541067298,-0.347650306797703,0
64.357,0.4934210526315787,0.6248268219181123,-0.3522252828078653,0
64.408,0.4144736842105261,0.6346095051370173,-0.3533919218546857,0
64.458,0.4605263157894734,0.6255379361203715,-0.3513294950328181,0
64.509,0.375,0.6147887710634115,-0.3461757147093709,0
64.56,0.4276315789473681,0.619520617180159,-0.3381301803858441,0
64.611,0.4144736842105261,0.6498250423823859,-0.3273787702487518,0
64.662,0.4671052631578947,0.6536245948996655,-0.3140891893098141,0
64.712,0.4276315789473681,0.650747917084357,-0.2984908489979561,0
64.763,0.4539473684210526,0.6620734269142482,-0.2807998385109007,0
64.814,0.4736842105263155,0.6920016301142581,-0.2612423103679151,0
64.865,0.4736842105263155,0.6791577477094711,-0.2400260240101674,0
64.915,0.4671052631578947,0.6320563103142769,-0.21742044529603,0
64.966,0.3618421052631579,0.6546754548059877,-0.1936532614530208,0
65.017,0.4539473684210526,0.7078007375075485,-0.1690138661258684,0
65.067,0.4473684210526314,0.7120018517229438,-0.1437785114452769,0
65.118,0.4802631578947367,0.7160466800356575,-0.1182046573800672,0
65.169,0.3947368421052633,0.6959781193231926,-0.0926116902195768,0
65.22,0.4078947368421053,0.6743698874308919,-0.0673056740219371,0
65.27,0.4210526315789473,0.6361411020284351,-0.0426029168840109,0
65.321,0.4736842105263155,0.616237027031552,-0.0188293911404264,0
65.373,0.4802631578947367,0.6230099453155538,0.0037071040489817,0
65.424,0.3815789473684208,0.6343663076739807,0.0246086067075239,0
65.475,0.4539473684210526,0.6124765698212352,0.0435752725486588,0
65.525,0.3947368421052633,0.6173568743061202,0.0604634638595018,0
65.576,0.4473684210526314,0.6269679818273433,0.074853073100948,0
65.628,0.4342105263157894,0.6565283826392839,0.0862975723032044,0
65.678,0.4736842105263155,0.6664034113670356,0.0950440391929841,0
65.729,0.4473684210526314,0.6421839980292614,0.1025616609419275,0
65.78,0.4605263157894734,0.6557593277734564,0.1088274695349493,0
65.83,0.4868421052631579,0.7046317504932094,0.1138771276462189,0
65.881,0.4210526315789473,0.7241944385010293,0.1177325502331712,0
65.932,0.4473684210526314,0.7166620664263076,0.1204252762157542,0
65.983,0.4276315789473681,0.7249716666054019,0.1219964684764205,0
66.034,0.4802631578947367,0.7341802751100605,0.1224819734472237,0
66.085,0.4407894736842106,0.7083473340367019,0.1219522342075589,0
66.136,0.4342105263157894,0.6854651749747249,0.1204771893676723,0
66.187,0.4210526315789473,0.6861480206705907,0.1181418431701843,0
66.238,0.4210526315789473,0.6818039525486497,0.1150084247164939,0
66.289,0.4671052631578947,0.6547016784953176,0.1111923984000844,0
66.339,0.4276315789473681,0.6334762606078455,0.1068021025215029,0
66.39,0.4802631578947367,0.5827448599881284,0.1019351172610214,0
66.441,0.3618421052631579,0.5898687858173388,0.0967356364672142,0
66.492,0.4144736842105261,0.5848991813594937,0.0913352862258469,0
66.542,0.401315789473684,0.5279017441127413,0.085887333606148,0
66.593,0.4802631578947367,0.5401517572042842,0.0805276659332849,0
66.644,0.4539473684210526,0.613657451225899,0.0754333425308577,0
66.695,0.4605263157894734,0.6302163495991471,0.0706555890446201,0
66.746,0.5065789473684208,0.6517838858923725,0.0654297314499232,0
66.796,0.4539473684210526,0.6848174330565822,0.059761433818358,0
66.848,0.4473684210526314,0.7168717019591877,0.053791871810636,0
66.899,0.388157894736842,0.7174287236087826,0.0479320114928945,0
66.95,0.4736842105263155,0.7236482618821987,0.0420686544284669,0
67.001,0.4276315789473681,0.7465379120229454,0.0360796619717436,0
67.051,0.4539473684210526,0.751007248898786,0.0299032078268326,0
67.102,0.4605263157894734,0.7341759238486583,0.0234274876552742,0
67.153,0.4473684210526314,0.7250941637163535,0.0165684696991705,0
67.204,0.4605263157894734,0.6913749393529335,0.0092489048348789,0
67.255,0.375,0.6659620069351943,0.0013821654599084,0
67.307,0.4276315789473681,0.6248507326332305,-0.0070574838775487,0
67.358,0.4078947368421053,0.5778905583309522,-0.016162678303123,0
67.409,0.4736842105263155,0.581812775782082,-0.0259615307466165,0
67.461,0.4736842105263155,0.6199648836653288,-0.03649534337901,0
67.512,0.4276315789473681,0.6216137615948919,-0.0477982366532452,0
67.563,0.4342105263157894,0.6162085303768734,-0.0598971493042235,0
67.614,0.3947368421052633,0.6199344436236609,-0.0728118383488132,0
67.665,0.4868421052631579,0.6437643107249641,-0.0865379182684606,0
67.716,0.401315789473684,0.6559617595494575,-0.1011179313430048,0
67.766,0.4407894736842106,0.6509323426065718,-0.1165297169392727,0
67.817,0.401315789473684,0.6625580484727697,-0.1327643036652661,0
67.868,0.4473684210526314,0.6945458029565935,-0.149822059421715,0
67.918,0.4736842105263155,0.6930012928148773,-0.1676595999565151,0
67.969,0.4473684210526314,0.6853048581729593,-0.1862465495415572,0
68.019,0.4407894736842106,0.6889992794361843,-0.2055620916447664,0
68.07,0.4605263157894734,0.7107980313282234,-0.2258463630498464,0
68.121,0.5,0.6862300014948365,-0.2478050442498154,0
68.172,0.401315789473684,0.6354665455820881,-0.2712895222693614,0
68.223,0.4407894736842106,0.6451977999108924,-0.2961343030789476,0
68.273,0.3684210526315787,0.6771825645235644,-0.3221839003952649,0
68.325,0.4342105263157894,0.6707627132686723,-0.3492831360109982,0
68.376,0.4144736842105261,0.6725562470753417,-0.3772720308816928,0
68.427,0.4078947368421053,0.6463436832372156,-0.4060044437704975,0
68.478,0.4539473684210526,0.6328874646903417,-0.4353306125573477,0
68.528,0.4407894736842106,0.6200242313636177,-0.4651038390588873,0
68.58,0.4736842105263155,0.6176009060281803,-0.4951752574386414,0
68.63,0.401315789473684,0.6299766972140032,-0.5254087022709464,0
68.681,0.5065789473684208,0.6593030793326322,-0.5556562991851786,0
68.732,0.4342105263157894,0.6541079844154382,-0.585777436267231,0
68.783,0.4802631578947367,0.6643219026965413,-0.6156399440134381,0
68.834,0.4276315789473681,0.6775826936036191,-0.6451014566858333,0
68.885,0.3815789473684208,0.7065212061551951,-0.6748972353748646,0
68.937,0.4276315789473681,0.7045333657661415,-0.7051418134974785,0
68.987,0.4144736842105261,0.6716821451445804,-0.7354403999459314,0
69.038,0.4802631578947367,0.6750035953848735,-0.765411074621873,0
69.089,0.4078947368421053,0.6994792210282506,-0.7946781668125555,0
69.139,0.4407894736842106,0.7022439164780612,-0.8228908938355783,0
69.19,0.401315789473684,0.6783756489032935,-0.8496816649845089,0
69.241,0.4539473684210526,0.6608139177423613,-0.8747426631163753,0
69.291,0.4868421052631579,0.6684383575214023,-0.8977372288406644,0
69.342,0.4671052631578947,0.6439658589101173,-0.9183830346604568,0
69.393,0.4342105263157894,0.6259151193418128,-0.9363689108312924,0
69.444,0.4210526315789473,0.6383447980494571,-0.9516145501980262,0
69.496,0.4407894736842106,0.6598083353768261,-0.964415886306317,0
69.547,0.388157894736842,0.6471279915521277,-0.9746499942131276,0
69.598,0.4671052631578947,0.6393080066991041,-0.982191349208035,0
69.649,0.4342105263157894,0.6184261627505134,-0.9863121934173282,0
69.7,0.401315789473684,0.6349636600184556,-0.9857695913628752,0
69.751,0.3947368421052633,0.6350841067685951,-0.9809318990617816,0
69.801,0.4473684210526314,0.5826747199896551,-0.9721364527405552,0
69.853,0.4868421052631579,0.5885385320528086,-0.95971882496318,0
69.904,0.4276315789473681,0.6467766811486085,-0.9440873943334464,0
69.955,0.4802631578947367,0.6656461517015315,-0.9255309493316116,0
70.006,0.4144736842105261,0.678965656386092,-0.904442592578808,0
70.057,0.4868421052631579,0.7014865154435527,-0.8811820317272934,0
70.108,0.5,0.7189914080078148,-0.8561099510502674,0
70.158,0.4736842105263155,0.7089789642172243,-0.8295880114418739,0
70.209,0.4407894736842106,0.7073113057353196,-0.8019788504171983,0
70.26,0.3684210526315787,0.7209806759720153,-0.7736664530714843,0
70.311,0.4473684210526314,0.7217349348225548,-0.744978440643127,0
70.362,0.388157894736842,0.7018850122810709,-0.7162971214241132,0
70.413,0.4868421052631579,0.6968308561907688,-0.6879890394132995,0
70.463,0.4473684210526314,0.6691393559904747,-0.6604013442712706,0
70.514,0.4671052631578947,0.6616326424237079,-0.6339191317981285,0
70.564,0.4210526315789473,0.6320512489283096,-0.6089262224419221,0
70.615,0.4342105263157894,0.5840210275395861,-0.5857550459008878,0
70.665,0.401315789473684,0.5956121841489543,-0.5644714346883755,0
70.716,0.4144736842105261,0.6477448280979539,-0.544762861437684,0
70.767,0.4210526315789473,0.6487198783766878,-0.5268046804482078,0
70.818,0.4210526315789473,0.6372070505489573,-0.5118429407580387,0
70.869,0.4868421052631579,0.6493480776817899,-0.5012194771644305,0
70.92,0.4078947368421053,0.6775016783452161,-0.4945775520228055,0
70.971,0.4671052631578947,0.6783063085129865,-0.4916490441023908,0
71.021,0.4276315789473681,0.6616107847607027,-0.4921402627688345,0
71.072,0.3947368421052633,0.671197621097317,-0.4957391767288481,0
71.123,0.4144736842105261,0.6911162784004339,-0.5022208583922896,0
71.173,0.4539473684210526,0.669629136561424,-0.5113390687658073,0
71.225,0.4342105263157894,0.6506514750272802,-0.5228585770267691,0
71.276,0.375,0.6218704292744928,-0.5365937293825174,0
71.327,0.4276315789473681,0.6325889349602367,-0.5523002488475688,0
71.378,0.4078947368421053,0.6127764398428903,-0.5697560837915783,0
71.429,0.4605263157894734,0.5610543091807136,-0.5888277989980049,0
71.48,0.4276315789473681,0.5778504017203017,-0.6082972985064292,0
71.531,0.4473684210526314,0.637290273953226,-0.6273022507471573,0
71.582,0.4671052631578947,0.6534458927901432,-0.6454134123608013,0
71.633,0.4539473684210526,0.6713791578656405,-0.6614589363506125,0
71.684,0.4868421052631579,0.6913913084949661,-0.6736500335246345,0
71.735,0.388157894736842,0.7099904808257378,-0.6820357681156424,0
71.786,0.4868421052631579,0.7168635575842657,-0.6866905081405275,0
71.836,0.4210526315789473,0.7199452194583884,-0.687595093296363,0
71.887,0.4671052631578947,0.7328776256273315,-0.6847823250025045,0
71.938,0.4276315789473681,0.7374004869673916,-0.678227291370233,0
71.988,0.4210526315789473,0.7165871831265693,-0.6679188066467603,0
72.039,0.5065789473684208,0.7103257027157224,-0.653790392345833,0
72.09,0.4473684210526314,0.6724096369310342,-0.6357844550939966,0
72.141,0.4407894736842106,0.655566687262751,-0.6138392123875824,0
72.191,0.3618421052631579,0.6196648308846703,-0.587852877580963,0
72.242,0.4276315789473681,0.5699321706636081,-0.5585461135476406,0
72.293,0.4078947368421053,0.5739548698414206,-0.5275428939521183,0
72.343,0.4671052631578947,0.6165013318146347,-0.4951286555087117,0
72.394,0.4276315789473681,0.6225027574635038,-0.4616358573585577,0
72.445,0.4473684210526314,0.6219198383876235,-0.4273950751423874,0
72.496,0.4539473684210526,0.6391492095136453,-0.3926960442541145,0
72.548,0.4473684210526314,0.6689729640287209,-0.3578819900696772,0
72.599,0.4605263157894734,0.6758233792350802,-0.3232869099442683,0
72.649,0.3618421052631579,0.6671098935341551,-0.2892113337873887,0
72.7,0.4802631578947367,0.6807170006275934,-0.2559954694150206,0
72.751,0.4078947368421053,0.7083167437885391,-0.2239673832681235,0
72.802,0.4671052631578947,0.6983817622418337,-0.1934565841077815,0
72.853,0.4276315789473681,0.6862551991290226,-0.1647940230152125,0
72.904,0.4539473684210526,0.6653098090188105,-0.1383120933917578,0
72.955,0.4605263157894734,0.6660191961247031,-0.11434463095889,0
73.006,0.3815789473684208,0.6268395063932157,-0.093273714877577,0
73.056,0.4144736842105261,0.5698661686106778,-0.0756035424278693,0
73.107,0.388157894736842,0.578868515268849,-0.0616260017038872,0
73.158,0.4868421052631579,0.6278320389429125,-0.0516186974464401,0
73.208,0.4078947368421053,0.6300579539685844,-0.0458945781303063,0
73.259,0.4671052631578947,0.6458584944612414,-0.044755450611623,0
73.31,0.4407894736842106,0.6554747763154151,-0.0484956088025603,0
73.361,0.4736842105263155,0.6624101455527387,-0.057429739028616,0
73.411,0.4407894736842106,0.6734149751386183,-0.070583068231719,0
73.462,0.4342105263157894,0.6835278049804174,-0.0863510008340204,0
73.513,0.4736842105263155,0.6882158565048457,-0.1045339546705861,0
73.563,0.4342105263157894,0.7009631774140724,-0.1248481045463125,0
73.614,0.4868421052631579,0.6974140716007119,-0.1470106175786738,0
73.665,0.3684210526315787,0.7047929610326557,-0.1707700717458147,0
73.715,0.3947368421052633,0.6901005881913242,-0.1957908019957126,0
73.766,0.4342105263157894,0.6873979537152471,-0.2217381355889225,0
73.818,0.5,0.658916525236235,-0.2482750150419468,0
73.868,0.4473684210526314,0.6124956024372827,-0.2749914719003699,0
73.92,0.4671052631578947,0.6252838024909119,-0.3015420023596906,0
73.971,0.4868421052631579,0.6608185454279943,-0.3275777081332003,0
74.022,0.4210526315789473,0.6641200630047417,-0.3526437261740263,0
74.073,0.4473684210526314,0.6650168423240763,-0.3766064660600494,0
74.124,0.3618421052631579,0.6475021769485901,-0.3998198267482449,0
74.175,0.4407894736842106,0.6605351788387992,-0.4215949935591991,0
74.226,0.4868421052631579,0.6598031943212056,-0.4421087408482911,0
74.277,0.5,0.6482518641564549,-0.4626627867332822,0
74.328,0.3947368421052633,0.6387107931922105,-0.4830476565618316,0
74.379,0.3815789473684208,0.6557699196594329,-0.5030680625504604,0
74.43,0.4473684210526314,0.6500638770835261,-0.522513833514533,0
74.481,0.4276315789473681,0.6333626090877407,-0.541230192599607,0
74.532,0.4210526315789473,0.6332782552544309,-0.559041094906471,0
74.582,0.4078947368421053,0.6545325236700537,-0.575806924520309,0
74.633,0.513157894736842,0.6484696814853872,-0.5913886794989542,0
74.684,0.4605263157894734,0.6037133781147292,-0.6056591349934346,0
74.735,0.401315789473684,0.6226238912142463,-0.6184892595528213,0
74.786,0.4210526315789473,0.6610897125655374,-0.629770457239758,0
74.836,0.4539473684210526,0.650720504825004,-0.6394300650042699,0
74.887,0.4802631578947367,0.6631104591032712,-0.6473741517516145,0
74.938,0.388157894736842,0.6492022140857767,-0.653545215371444,0
74.988,0.401315789473684,0.6333605111367424,-0.6576705484839989,0
75.039,0.401315789473684,0.6234896779188114,-0.6592182339173471,0
75.089,0.4736842105263155,0.6175362127645396,-0.6583187214819248,0
75.14,0.3947368421052633,0.6158611506132968,-0.6551084436028272,0
75.191,0.4473684210526314,0.6281410400021357,-0.6496911465695057,0
75.241,0.4342105263157894,0.6110190798444756,-0.6422271580889218,0
75.292,0.4934210526315787,0.6354184570099154,-0.6328429335247006,0
75.343,0.4539473684210526,0.6652186155661722,-0.6216836282223717,0
75.394,0.4276315789473681,0.703622023097907,-0.6088983137182618,0
75.446,0.5065789473684208,0.7161045362250891,-0.5946452177817061,0
75.497,0.4144736842105261,0.7049054361622664,-0.5790861302220895,0
75.548,0.4736842105263155,0.7053943484403518,-0.5623883902995028,0
75.599,0.4144736842105261,0.7095735430879269,-0.5446663041435627,0
75.651,0.4342105263157894,0.7072576628264955,-0.5258740807592006,0
75.701,0.4276315789473681,0.6842310985822161,-0.5061448133406188,0
75.752,0.4078947368421053,0.6391588095436267,-0.4856152395304232,0
75.803,0.4671052631578947,0.6207863922961531,-0.4644257414196222,0
75.854,0.3684210526315787,0.5729720079393672,-0.442720345547628,0
75.905,0.4407894736842106,0.5439903341827179,-0.4206384844194499,0
75.956,0.4210526315789473,0.5462034762031194,-0.3983381863091475,0
76.007,0.4605263157894734,0.5761338565139237,-0.3759743535298345,0
76.057,0.4539473684210526,0.5604915363352662,-0.3537055328430272,0
76.108,0.4210526315789473,0.5579525334373394,-0.3316971819784626,0
76.159,0.4342105263157894,0.5764439279818637,-0.3101013178069691,0
76.21,0.4671052631578947,0.616178134217539,-0.2887210872969774,0
76.261,0.4802631578947367,0.6446592448706542,-0.2673035479795644,0
76.311,0.401315789473684,0.6353080740181651,-0.2461971653198786,0
76.362,0.4539473684210526,0.6276184705480151,-0.2257771303781024,0
76.413,0.4078947368421053,0.6511492494555284,-0.2063653301447492,0
76.464,0.4736842105263155,0.6520353709165772,-0.1883137611730942,0
76.516,0.4473684210526314,0.6458088753642636,-0.1719638178185194,0
76.567,0.4144736842105261,0.6518721418337942,-0.1576604302279909,0
76.618,0.4210526315789473,0.6334312375265623,-0.1457251846916061,0
76.668,0.3815789473684208,0.5960839020714737,-0.1361265446876816,0
76.719,0.4736842105263155,0.5958371313808797,-0.1280725205729838,0
76.77,0.4144736842105261,0.6058696690540657,-0.12160182476204,0
76.821,0.4802631578947367,0.6169207936593917,-0.1167747847046807,0
76.871,0.4276315789473681,0.6108755020910694,-0.1136220305004762,0
76.922,0.4407894736842106,0.6203460286791154,-0.1121604883695672,0
76.973,0.4210526315789473,0.6258570849013793,-0.1123739192098489,0
77.024,0.4342105263157894,0.6303999048015047,-0.1142871603973239,0
77.075,0.4605263157894734,0.621253617962313,-0.1178600330430104,0
77.126,0.4407894736842106,0.6078885788946446,-0.1230546478493148,0
77.177,0.4407894736842106,0.5852130114783074,-0.1298038055762802,0
77.228,0.3684210526315787,0.5987470690412627,-0.1380610664934858,0
77.279,0.4473684210526314,0.6105886271178497,-0.147747296960421,0
77.33,0.4605263157894734,0.6006025207464538,-0.1587696594571417,0
77.383,0.4407894736842106,0.6011928091060973,-0.171041074027082,0
77.433,0.4605263157894734,0.6204873260715089,-0.1844254379195109,0
77.484,0.4736842105263155,0.592003360498597,-0.2013307301213291,0
77.535,0.4671052631578947,0.5887383315757594,-0.2218317802826792,0
77.586,0.3223684210526314,0.6024890705236253,-0.245415370442056,0
77.636,0.4473684210526314,0.6245294801456222,-0.2719387856895734,0
77.687,0.4144736842105261,0.6374216486319326,-0.3007601088457377,0
77.738,0.4276315789473681,0.6428999509784735,-0.3312100566250033,0
77.789,0.4210526315789473,0.6423466944220096,-0.3627506199287942,0
77.839,0.4407894736842106,0.6266762951386836,-0.3948019707175927,0
77.89,0.4342105263157894,0.5912001119613182,-0.4268088437613391,0
77.941,0.4210526315789473,0.592626810874877,-0.4582352965972234,0
77.992,0.4671052631578947,0.5772616460090292,-0.4885683302002503,0
78.043,0.375,0.5721760311852946,-0.5173122947902826,0
78.094,0.4473684210526314,0.5906594682897891,-0.5439941298742537,0
78.145,0.4144736842105261,0.5915496991460497,-0.5682116863793778,0
78.196,0.4473684210526314,0.5633898269422929,-0.5894754405108704,0
78.247,0.4605263157894734,0.5579970456653889,-0.6073740052762542,0
78.298,0.4407894736842106,0.6124954760729086,-0.6215185829701186,0
78.349,0.4671052631578947,0.6183090549493998,-0.6285737768659432,0
78.4,0.401315789473684,0.6123583144941538,-0.6287403958667255,0
78.452,0.4736842105263155,0.6107640519342317,-0.6223002137721578,0
78.503,0.388157894736842,0.6123311178206625,-0.6095397414330708,0
78.554,0.4605263157894734,0.5887990394247362,-0.590709762712154,0
78.605,0.4342105263157894,0.5786868651299574,-0.566098732277569,0
78.656,0.4342105263157894,0.6123914151449107,-0.535957292877028,0
78.707,0.4868421052631579,0.631654716379315,-0.5005389344203792,0
78.758,0.4473684210526314,0.4679865483449685,-0.4600918544093588,0
78.808,0.4342105263157894,0.4398834530825408,-0.4153301037837691,0
78.859,0.375,0.4808577396564752,-0.3672040237527634,0
78.91,0.4802631578947367,0.470730348930982,-0.31614116180178,0
78.961,0.4210526315789473,0.4391824712940088,-0.2625643736059921,0
79.011,0.4210526315789473,0.3428770505629138,-0.2069335763003756,0
79.062,0.4276315789473681,0.2812315045841597,-0.1497052942450589,0
79.113,0.4342105263157894,0.2580964668584552,-0.0913174162662295,0
79.164,0.4473684210526314,0.2128446487655775,-0.0322031393798138,0
79.215,0.4210526315789473,0.2163044182231764,0.0271672779384615,0
79.266,0.5065789473684208,0.2199449794260766,0.08633658520497,0
79.317,0.401315789473684,0.2546884764597467,0.1448353186480058,0
79.368,0.4144736842105261,0.2873280358488269,0.2022126500297973,0
79.42,0.4342105263157894,0.3283954387432577,0.2580130681094355,0
79.471,0.4342105263157894,0.460734459884387,0.3117572299704108,0
79.522,0.4802631578947367,0.5716939193203893,0.3629748947749536,0
79.573,0.4605263157894734,0.6369243838213456,0.4111836083972071,0
79.624,0.4671052631578947,0.6609817010609125,0.455919552245259,0
79.675,0.4144736842105261,0.6412702951265454,0.4967046095067982,0
79.726,0.4736842105263155,0.5622182766456821,0.5330580652986829,0
79.776,0.388157894736842,0.4667568279472477,0.564477616636291,0
79.828,0.4407894736842106,0.3361096637553425,0.5904928258531355,0
79.878,0.4802631578947367,0.2287374609367739,0.6106054359317201,0
79.929,0.4671052631578947,0.2017450070468868,0.6243358253884868,0
79.98,0.4342105263157894,0.2239706336905078,0.6311900745194814,0
80.032,0.3947368421052633,0.2370887770013686,0.6306812807671753,0
80.083,0.5,0.2957706217825387,0.6255470883910026,0
80.133,0.401315789473684,0.3833502296343444,0.6167425520999799,0
80.184,0.4473684210526314,0.434154497039575,0.6045566941262166,0
80.235,0.4144736842105261,0.5145807562546663,0.5892557489194061,0
80.286,0.5,0.6388118757022326,0.5711331185399442,0
80.336,0.4473684210526314,0.657939820720356,0.5504358951805148,0
80.387,0.401315789473684,0.5542479533154872,0.5275766803797977,0
80.438,0.4407894736842106,0.4422589786354402,0.5029298463320551,0
80.489,0.4078947368421053,0.4169586331406646,0.4768842429212827,0
80.54,0.4605263157894734,0.3621490193896754,0.4498839112176616,0
80.59,0.3815789473684208,0.2753589366791724,0.4223846183400788,0
80.641,0.4473684210526314,0.2181062492039426,0.3948692990181217,0
80.693,0.375,0.1913709183210744,0.36784805559209,0
80.744,0.4605263157894734,0.1819211153233103,0.3419062556494583,0
80.795,0.4539473684210526,0.1795004086604321,0.3175741398040754,0
80.845,0.4276315789473681,0.1908708315344018,0.2954436301116194,0
80.896,0.4671052631578947,0.2259450436365132,0.2761211263174972,0
80.947,0.4210526315789473,0.2294980005004889,0.2566571893583411,0
80.998,0.4802631578947367,0.2948982489125646,0.2369705838933118,0
81.049,0.4210526315789473,0.366682898729156,0.2170519540799707,0
81.1,0.4276315789473681,0.4403701723698788,0.1969049776428728,0
81.15,0.3684210526315787,0.5375497107015607,0.1765017319696675,0
81.201,0.4605263157894734,0.6445087130782428,0.155845486916049,0
81.252,0.4736842105263155,0.7048129719173915,0.1349380205085992,0
81.304,0.4605263157894734,0.7445074085124477,0.1137766178465837,0
81.355,0.4671052631578947,0.8056876345463813,0.0923481972971291,0
81.406,0.401315789473684,0.8008905404145534,0.0706622442495614,0
81.457,0.4605263157894734,0.6525748822003676,0.0482856009698609,0
81.508,0.4210526315789473,0.4888851640449169,0.0250661184279556,0
81.559,0.4473684210526314,0.3902746609157811,0.0011472103302954,0
81.609,0.4210526315789473,0.2765898019573292,-0.0233337940327054,0
81.66,0.4539473684210526,0.2103991223077176,-0.0482314675601549,0
81.711,0.4407894736842106,0.2000834487735219,-0.0734261008855097,0
81.761,0.4144736842105261,0.1554636053640066,-0.0987935782125704,0
81.812,0.4407894736842106,0.1441684668929736,-0.1242126675882686,0
81.863,0.3815789473684208,0.1454645210979052,-0.1495675029796084,0
81.914,0.4210526315789473,0.1486698301508358,-0.1747342776755949,0
81.965,0.401315789473684,0.1854864300123139,-0.199616502986037,0
82.015,0.4671052631578947,0.2226319455814821,-0.2241233774921425,0
82.066,0.4473684210526314,0.2635864763297773,-0.248146625641914,0
82.117,0.4473684210526314,0.3383817820701998,-0.2715936715166465,0
82.167,0.4473684210526314,0.3899322146089359,-0.2943660153612017,0
82.218,0.4736842105263155,0.4555799821045376,-0.3163860742954325,0
82.269,0.4473684210526314,0.5503224082418077,-0.337573779723006,0
82.32,0.375,0.6549919296879965,-0.3578535471771671,0
82.371,0.4473684210526314,0.7105626779317008,-0.3771542763207445,0
82.422,0.401315789473684,0.7074153352572156,-0.3954093509461489,0
82.472,0.4605263157894734,0.6417799529815778,-0.4124446098844125,0
82.523,0.4078947368421053,0.5240891946807338,-0.4281384061160089,0
82.574,0.4078947368421053,0.3815130920712901,-0.442480310847452,0
82.625,0.4605263157894734,0.2765226793744241,-0.4554675903205822,0
82.676,0.4605263157894734,0.2255069558931111,-0.4672751004549944,0
82.727,0.4736842105263155,0.1886869451516094,-0.477930872675554,0
82.778,0.3815789473684208,0.1620428979323042,-0.4874694875244951,0
82.828,0.4210526315789473,0.1521058454025746,-0.49592659270948,0
82.879,0.388157894736842,0.1745934876452204,-0.5033488304274616,0
82.93,0.4605263157894734,0.2331856132136339,-0.5097677975359143,0
82.981,0.4407894736842106,0.2920144719040963,-0.5152472758640314,0
83.033,0.4473684210526314,0.3831864021806824,-0.5198425187162778,0
83.084,0.4473684210526314,0.4943715678402772,-0.5235974992313588,0
83.135,0.4144736842105261,0.5892239771361072,-0.526591469750517,0
83.185,0.4802631578947367,0.6606367858488252,-0.5288883209972122,0
83.236,0.4144736842105261,0.7035864812236063,-0.5305598702648684,0
83.287,0.4539473684210526,0.6912515433190588,-0.5316820962431508,0
83.337,0.3947368421052633,0.6599193502736962,-0.532319697455963,0
83.388,0.4342105263157894,0.5817486451823555,-0.5325695573989362,0
83.442,0.4276315789473681,0.4598685564992016,-0.5325231252737825,0
83.493,0.4342105263157894,0.3219332333782104,-0.5322536384948218,0
83.544,0.4605263157894734,0.2429885651689473,-0.5316654052814254,0
83.595,0.3618421052631579,0.1544289141386062,-0.5309019108852857,0
83.646,0.4605263157894734,0.0934161062793635,-0.5301161736720086,0
83.697,0.4342105263157894,0.0814279615144634,-0.5294479154580469,0
83.748,0.4802631578947367,0.1153127725061964,-0.5290408183882711,0
83.799,0.3947368421052633,0.1415839397416359,-0.5290483700833892,0
83.849,0.375,0.1747633745270362,-0.5296301264976628,0
83.9,0.4473684210526314,0.2695543602017624,-0.5309440297319352,0
83.95,0.4605263157894734,0.3595333123270479,-0.5331504392618203,0
84.001,0.4671052631578947,0.4318897981707027,-0.5364192476768495,0
84.052,0.4342105263157894,0.5638661950474928,-0.5403642670310158,0
84.104,0.4868421052631579,0.6459855390458704,-0.5447629468883852,0
84.155,0.4144736842105261,0.6917955092923153,-0.5496283004866405,0
84.206,0.4407894736842106,0.7900114372257019,-0.5549754563439124,0
84.257,0.4407894736842106,0.8034410284039984,-0.5608011535401862,0
84.308,0.4671052631578947,0.5886448542968927,-0.5671073896759886,0
84.359,0.4802631578947367,0.3791851343727659,-0.5738918803891169,0
84.409,0.401315789473684,0.3011212176378182,-0.5811576571707238,0
84.46,0.401315789473684,0.2495870097101535,-0.5888879127577824,0
84.511,0.3815789473684208,0.2005715980999308,-0.5976849585363229,0
84.562,0.4802631578947367,0.2277956309498779,-0.6075953829579384,0
84.613,0.4210526315789473,0.2157014813465733,-0.6184387767442501,0
84.664,0.4342105263157894,0.2059287101717419,-0.6300390399393967,0
84.714,0.4671052631578947,0.2518562835505837,-0.6422218998330866,0
84.765,0.4736842105263155,0.2795672070474579,-0.6548059623899598,0
84.816,0.4605263157894734,0.309709066367952,-0.6676371157832071,0
84.867,0.401315789473684,0.3797855313975484,-0.6805520027018794,0
84.917,0.4473684210526314,0.4300744119912832,-0.6933820652234284,0
84.968,0.375,0.4515286120829352,-0.705981226774494,0
85.02,0.4605263157894734,0.4443267223192113,-0.7181963392716284,0
85.07,0.401315789473684,0.4384102801195366,-0.7299997661048441,0
85.121,0.4342105263157894,0.4071127339445451,-0.7413741054820862,0
85.172,0.4539473684210526,0.3694370470331871,-0.7522365216920628,0
85.223,0.4407894736842106,0.337862002277055,-0.7624865429400507,0
85.273,0.4802631578947367,0.2920768717687207,-0.7720324207516913,0
85.324,0.4144736842105261,0.2806158648501197,-0.78058048333732,0
85.375,0.4605263157894734,0.2930908635992261,-0.7877165193624625,0
85.426,0.4144736842105261,0.3231198525847947,-0.7934966590366768,0
85.476,0.4671052631578947,0.3508553883494401,-0.7979635260382472,0
85.527,0.401315789473684,0.4123537341654221,-0.8011665561239245,0
85.578,0.4144736842105261,0.485595545631891,-0.8031552112570806,0
85.629,0.4276315789473681,0.5165350406501661,-0.8039820134091415,0
85.679,0.4671052631578947,0.570102230285849,-0.8036928111133104,0
85.73,0.4539473684210526,0.5983912001762945,-0.8023334055767197,0
85.781,0.4342105263157894,0.6452965821378891,-0.7999564573061742,0
85.832,0.4671052631578947,0.6333275629429955,-0.796611558784279,0
85.883,0.3947368421052633,0.5829973082869049,-0.7923483287002597,0
85.934,0.4210526315789473,0.4973415607884079,-0.7872164119499565,0
85.985,0.4407894736842106,0.4036384663376164,-0.7812654796358312,0
86.035,0.4868421052631579,0.2840104892127291,-0.774541463893238,0
86.086,0.4342105263157894,0.1674206160528271,-0.7670972760504018,0
86.137,0.3947368421052633,0.1092155609506305,-0.759235145100551,0
86.187,0.4210526315789473,0.1154661375255795,-0.7510473722243929,0
86.238,0.375,0.1224724331720392,-0.7426230617789764,0
86.289,0.4210526315789473,0.1318573076421957,-0.7341352522291431,0
86.34,0.388157894736842,0.1812042410275919,-0.7271843693089857,0
86.39,0.4671052631578947,0.2349798388584333,-0.7215032571291016,0
86.442,0.4276315789473681,0.2777808500877576,-0.7169240347749151,0
86.493,0.4736842105263155,0.368999535530082,-0.713225279214442,0
86.544,0.4934210526315787,0.4872665585099808,-0.7102620127274601,0
86.595,0.4736842105263155,0.657331431180276,-0.707889705615508,0
86.646,0.4671052631578947,0.7800351059302105,-0.7059333518358664,0
86.696,0.4276315789473681,0.8138052861648635,-0.7042597444821286,0
86.747,0.4144736842105261,0.7279513298630333,-0.702750804169678,0
86.798,0.3486842105263155,0.5974849323854144,-0.701267153796509,0
86.849,0.4539473684210526,0.4309922285818091,-0.6997615754963056,0
86.899,0.401315789473684,0.2941678358745591,-0.6981610758317478,0
86.95,0.4539473684210526,0.2054791846942978,-0.6964355554337072,0
87.001,0.4802631578947367,0.1877319917837904,-0.6945000659720975,0
87.052,0.4605263157894734,0.1259654645610533,-0.6923342879162071,0
87.103,0.4473684210526314,0.116504201279714,-0.6891800189587045,0
87.154,0.375,0.1505660267714155,-0.6846430337848195,0
87.205,0.4605263157894734,0.1817067242042861,-0.6785886843699798,0
87.256,0.3947368421052633,0.2147123194822427,-0.6697538855024991,0
87.307,0.4868421052631579,0.2737236609741624,-0.6581535917091954,0
87.358,0.4276315789473681,0.3891946513126995,-0.6438834809254197,0
87.408,0.4539473684210526,0.5641419453679354,-0.6270243754836815,0
87.459,0.4473684210526314,0.686443553064284,-0.6076640703103087,0
87.51,0.4539473684210526,0.7219355188852038,-0.5858992038239359,0
87.561,0.4671052631578947,0.6320055622129194,-0.5618008944356843,0
87.612,0.4342105263157894,0.5300084968821833,-0.5354578566483579,0
87.662,0.4539473684210526,0.4872535240929637,-0.5069512956508271,0
87.713,0.375,0.4177017482361541,-0.4763664494837254,0
87.763,0.4539473684210526,0.2942914466428978,-0.4437679712764693,0
87.814,0.3947368421052633,0.2330613446607985,-0.40924068680533,0
87.866,0.4473684210526314,0.1807244122103675,-0.3728591381531507,0
87.917,0.4671052631578947,0.1648874550760553,-0.3349516096906892,0
87.968,0.4407894736842106,0.1761801539640518,-0.2961068483759912,0
88.019,0.4671052631578947,0.2224106837335527,-0.2565265385813799,0
88.069,0.4276315789473681,0.2680744049190747,-0.2164272768909318,0
88.12,0.4802631578947367,0.3076771192139143,-0.1760154045157906,0
88.171,0.4144736842105261,0.4168415008739411,-0.1355017077170552,0
88.223,0.4605263157894734,0.5532951019901126,-0.095112117179569,0
88.274,0.4276315789473681,0.6073790754895795,-0.0550661878973888,0
88.325,0.4144736842105261,0.6637323502289326,-0.0155896967536346,0
88.376,0.4342105263157894,0.669618363352293,0.0230881774422053,0
88.426,0.4605263157894734,0.6585244683381284,0.0607348539542726,0
88.477,0.5,0.6262218072630746,0.0971143501203388,0
88.528,0.4144736842105261,0.5153298748830117,0.1319872813518081,0
88.58,0.4342105263157894,0.3954781106322552,0.1651156717742554,0
88.631,0.3947368421052633,0.327201419415372,0.1962475200890234,0
88.682,0.4144736842105261,0.2370015437721363,0.2255582727422167,0
88.733,0.4407894736842106,0.1692318237078167,0.2530568842405953,0
88.784,0.4342105263157894,0.1557456665684043,0.2783268257245805,0
88.834,0.4342105263157894,0.180284910533709,0.3009577627179465,0
88.885,0.4078947368421053,0.1811222876889412,0.3206233800735947,0
88.936,0.4539473684210526,0.1959697671385385,0.3387652083033798,0
88.986,0.3815789473684208,0.2646135335566135,0.3553031406570199,0
89.037,0.4539473684210526,0.3386610725118398,0.3702245843183309,0
89.088,0.4407894736842106,0.3821309490147943,0.3834947042704044,0
89.139,0.4934210526315787,0.4724096090403685,0.3951439412998718,0
89.189,0.4605263157894734,0.5713994871129179,0.4052149531447502,0
89.24,0.4539473684210526,0.6457932086478073,0.4137283914524157,0
89.291,0.4407894736842106,0.6818540741632956,0.4207263106987251,0
89.343,0.3947368421052633,0.6931744036224102,0.4262900770588698,0
89.394,0.4473684210526314,0.6492385505365977,0.4304712273679567,0
89.444,0.3947368421052633,0.5689901899535221,0.4333991341266818,0
89.496,0.4342105263157894,0.4497211418658554,0.4351919211649577,0
89.547,0.4407894736842106,0.3105212523344968,0.4360180175419734,0
89.598,0.4407894736842106,0.2036506327240744,0.4360010524025659,0
89.649,0.4276315789473681,0.1561985152348718,0.4353089393135949,0
89.7,0.3684210526315787,0.1073878287095832,0.4341261097175359,0
89.751,0.401315789473684,0.073407647061646,0.4326197255788258,0
89.802,0.375,0.0949505773642417,0.4310347845274949,0
89.852,0.5,0.1549189408366983,0.4282526041394519,0
89.903,0.4605263157894734,0.1780882251721802,0.4242210565989066,0
89.953,0.4736842105263155,0.2371695364602724,0.4189060792310641,0
90.004,0.4539473684210526,0.3960526236913347,0.4123203361957301,0
90.055,0.4342105263157894,0.6078530698394966,0.4044808160304285,0
90.106,0.4276315789473681,0.7524360511051698,0.3953882759572575,0
90.157,0.4605263157894734,0.8073597878226396,0.3850567418045072,0
90.208,0.4473684210526314,0.7722383661490206,0.3735174254066193,0
90.259,0.388157894736842,0.693388182763905,0.3603141390045574,0
90.309,0.4868421052631579,0.5534588288914561,0.3446853656137487,0
90.36,0.4210526315789473,0.4554299498835245,0.3269666057868359,0
90.411,0.4605263157894734,0.3439880599539617,0.3074833241257755,0
90.461,0.4605263157894734,0.2556177977031787,0.2865557599223849,0
90.512,0.4605263157894734,0.1904978946149598,0.2644930733942092,0
90.562,0.4671052631578947,0.1906170588246627,0.2416266825375057,0
90.613,0.4736842105263155,0.224012003501679,0.2182407378010848,0
90.664,0.4671052631578947,0.267859558373807,0.1946573930483768,0
90.715,0.3421052631578947,0.3259587659064237,0.1711457217380436,0
90.766,0.4342105263157894,0.4068758429025088,0.1479890442646647,0
90.817,0.4342105263157894,0.5049015606365924,0.1254987925656578,0
90.868,0.4736842105263155,0.5543963411705678,0.1039285075331313,0
90.919,0.4473684210526314,0.5802236025144654,0.083534971168254,0
90.97,0.4736842105263155,0.5716823216395535,0.0646238313497971,0
91.021,0.4605263157894734,0.5182126911094962,0.0474377636799903,0
91.072,0.4276315789473681,0.5062172449999445,0.0322347338205655,0
91.122,0.4605263157894734,0.4715258776991768,0.0192674821231095,0
91.174,0.3947368421052633,0.393447971960711,0.0087776698649433,0
91.224,0.4210526315789473,0.2968970347385969,0.0010123565111075,0
91.275,0.3947368421052633,0.249216157351069,-0.0043254446467604,0
91.327,0.401315789473684,0.1907302223428907,-0.0075012763375794,0
91.378,0.4144736842105261,0.1513603188697558,-0.0084662294113857,0
91.429,0.4210526315789473,0.161863315983556,-0.0071831825366386,0
91.48,0.5065789473684208,0.1899950117815031,-0.0036099426092346,0
91.531,0.4210526315789473,0.1993288011086311,0.0035461076350582,0
91.582,0.4736842105263155,0.2306982912161989,0.0144561598214276,0
91.633,0.4210526315789473,0.3077052586163004,0.0287715512214328,0
91.684,0.4605263157894734,0.4267341137549652,0.0461238287176497,0
91.735,0.4210526315789473,0.551179231725158,0.0661578643588916,0
91.786,0.4210526315789473,0.6438950571466622,0.0885168461921006,0
91.836,0.4473684210526314,0.7063217396423686,0.1128622596597752,0
91.887,0.4671052631578947,0.7320917407724111,0.1388604880861197,0
91.937,0.4539473684210526,0.6816916709144687,0.1661408771076957,0
91.988,0.3355263157894734,0.6034654605909022,0.1943841853118413,0
92.039,0.4802631578947367,0.467744169344359,0.2232359402753907,0
92.089,0.4539473684210526,0.3319972118412028,0.2523827607944553,0
92.14,0.4736842105263155,0.2257649536939158,0.2814932819533062,0
92.192,0.3947368421052633,0.1621637377199728,0.3102391422709507,0
92.242,0.4144736842105261,0.1487816703281162,0.3382777364024774,0
92.293,0.4605263157894734,0.1812417645751541,0.3653247975209126,0
92.344,0.4276315789473681,0.2098743683568382,0.3910227400042414,0
92.395,0.4868421052631579,0.239526208778206,0.415076056596309,0
92.446,0.4078947368421053,0.2931681104194746,0.4372010634898244,0
92.497,0.4473684210526314,0.3475486672968182,0.4570263915432746,0
92.549,0.4144736842105261,0.3992374839880923,0.4742884253982642,0
92.6,0.4473684210526314,0.4752946625788573,0.4886724504293456,0
92.651,0.4407894736842106,0.5475984422598792,0.4998645173152547,0
92.702,0.4276315789473681,0.5988336534123,0.5075592266945259,0
92.752,0.4868421052631579,0.6049447020914153,0.5114819486934765,0
92.803,0.4210526315789473,0.6205421852053552,0.511340069726582,0
92.854,0.4473684210526314,0.5695384530511765,0.5074391971098944,0
92.905,0.3684210526315787,0.5030955166281283,0.5006945689336777,0
92.956,0.4407894736842106,0.4457039853435523,0.4911218712573757,0
93.007,0.4276315789473681,0.3463624127023428,0.4787896691781323,0
93.057,0.4342105263157894,0.2630435827101863,0.4637775791983296,0
93.108,0.4276315789473681,0.2644504088903941,0.4461419212889739,0
93.159,0.4144736842105261,0.2340090945847893,0.4259370311525132,0
93.209,0.4473684210526314,0.1886718413237529,0.4031561675291657,0
93.26,0.401315789473684,0.1838882938909328,0.3778312117856526,0
93.31,0.3947368421052633,0.2108545758662166,0.350153897383997,0
93.361,0.375,0.224094135151018,0.3203389392335158,0
93.412,0.4671052631578947,0.2320537168078717,0.2885782058010191,0
