Time,PPG,ECG,resp,Class
3.264,0.414467253176931,0.365325077399381,-0.207831325301205,0
1.048,0.266666666666667,0.515625,,1
1.216,0.266666666666667,0.3828125,,0
2.544,2.3841642228739,0.264907135874878,-0.914089347079038,0
2.984,0.650048875855327,0.689453125,0.148582600195503,1
1.24,0.694117647058824,0.53125,,1
0.4,0.670588235294118,0.84375,,1
4.408,0.423529411764706,0.15625,,1
1.112,1.80058651026393,0.229716520039101,0.451384615384615,0
3.384,0.704789833822092,0.57421875,0.0,1
4.84,1.79276637341153,0.334799608993157,0.171076923076923,0
0.152,0.815686274509804,0.7578125,,0
3.976,2.03128054740958,0.4951171875,0.68800390911312,1
2.504,0.566959921798632,0.595703125,0.129032258064516,1
1.488,0.325490196078431,0.40625,,0
3.192,0.549019607843137,0.803149606299213,,0
0.512,0.286274509803922,0.3125,,1
3.152,0.537254901960784,0.59375,,1
1.024,2.6080156402737,0.169599217986315,-0.509736540664376,0
1.368,2.33822091886608,0.345063538611926,-0.141111789859499,0
2.568,0.392156862745098,1.0234375,,1
4.464,1.84457478005865,0.260019550342131,0.474712924505253,0
4.256,1.58357771260997,0.209677419354839,0.264604810996564,0
0.224,0.27761485826002,0.375,0.769987699876999,1
1.248,1.99022482893451,0.0395894428152493,-0.0004886391399951,0
2.248,2.07038123167155,0.544965786901271,0.166153846153846,0
4.272,0.308895405669599,0.974609375,1.0,0
1.824,0.842619745845552,0.459921798631476,0.136893203883495,1
4.288,0.486274509803922,-0.181102362204724,,0
2.544,0.622678396871945,-0.472549019607843,0.380073800738007,1
4.776,1.86803519061584,0.5,-0.225412339645693,0
3.672,2.03030303030303,0.51513671875,0.860737845101393,1
0.592,0.509803921568627,0.598425196850394,,0
4.728,0.397849462365591,0.1796875,1.0,0
3.808,2.09677419354839,0.60009765625,0.227705839237723,0
1.12,0.424242424242424,0.0235294117647059,0.210332103321033,1
4.24,0.628543499511241,-0.237254901960784,0.174975562072336,1
0.384,1.05571847507331,0.459921798631476,0.543203883495146,1
1.68,0.648093841642229,0.53515625,0.0,1
1.008,0.462365591397849,0.384765625,0.597222222222222,1
3.472,0.627565982404692,0.529411764705882,0.208211143695015,1
3.216,0.325490196078431,0.3359375,,1
1.448,0.453567937438905,0.705078125,0.75366568914956,0
3.256,0.567937438905181,0.41015625,0.0244498777506112,0
3.072,2.14271749755621,0.109481915933529,1.0,0
1.152,0.466666666666667,0.7265625,,1
4.288,0.419354838709677,0.42578125,-0.395833333333333,1
2.584,0.321603128054741,0.416015625,-0.0806845965770171,0
4.888,0.690196078431373,0.8046875,,0
1.16,0.608993157380254,-0.0058823529411764,0.190651906519065,1
1.464,0.467253176930596,0.240234375,0.0959409594095941,0
1.376,0.494623655913978,0.265625,0.166051660516605,0
0.84,1.86119257086999,0.55517578125,0.25702418763743,0
0.072,0.349019607843137,0.59375,,1
3.912,0.438905180840665,0.224609375,0.243542435424354,0
4.72,0.379276637341153,0.798828125,0.342130987292278,0
0.104,1.98240469208211,0.484848484848485,1.0,0
3.752,0.425219941348974,0.449019607843137,0.314760508308895,1
0.592,2.42130987292278,0.434995112414467,0.498058252427184,1
1.664,0.604105571847507,0.115234375,0.425219941348974,0
1.704,2.02932551319648,0.4248046875,1.0,1
4.744,2.24242424242424,0.0997067448680352,0.191057903738089,0
4.664,0.60019550342131,0.394736842105263,-0.11144578313253,0
2.896,2.13587487781036,0.334799608993157,0.0079413561392791,0
2.816,0.328445747800586,0.96484375,0.47702834799609,0
3.928,2.77321603128055,0.410068426197458,-0.0372632864996946,0
1.872,1.78983382209189,0.349951124144673,0.244307692307692,0
3.064,0.269794721407625,0.258823529411765,0.0811339198435973,1
4.504,0.321603128054741,0.254901960784314,0.133980582524272,0
1.536,0.486274509803922,0.496062992125984,,0
0.008,0.52156862745098,0.748031496062992,,0
2.928,0.547409579667644,0.359375,0.169741697416974,1
2.016,0.525904203323558,0.345703125,0.654936461388074,0
2.168,1.8494623655914,0.0997067448680352,-0.0004886391399951,0
4.16,0.407624633431085,0.249019607843137,0.904854368932039,0
3.192,1.20136852394917,0.605083088954057,0.218666015147813,1
3.216,0.36852394916911,0.64453125,0.217986314760508,1
4.552,1.09286412512219,0.269794721407625,0.969460053750305,1
3.8,2.04398826979472,0.254643206256109,0.340092841436599,1
1.912,0.274682306940371,0.76953125,1.0,0
4.688,0.498039215686275,0.519685039370079,,0
1.152,0.458823529411765,0.811023622047244,,0
4.864,0.647058823529412,0.566929133858268,,0
2.44,1.83577712609971,0.404692082111437,0.0158827122785583,0
0.968,0.389051808406647,0.509765625,0.21760391198044,0
2.616,0.649071358748778,0.470588235294118,0.129032258064516,1
1.28,2.20234604105572,0.59521484375,0.224774004397752,0
1.4,0.501466275659824,0.400390625,0.36919315403423,0
3.0,0.368627450980392,0.535433070866142,,0
0.192,2.27761485826002,0.39980449657869,0.145230769230769,0
0.264,0.637341153470186,0.111328125,0.469208211143695,0
0.416,1.02834799608993,0.464809384164223,0.536893203883495,1
2.68,0.428152492668622,0.564453125,0.12316715542522,1
0.168,2.29618768328446,0.7197265625,0.157097483508429,0
3.728,2.03812316715543,1.10009765625,0.141949670168581,0
1.296,0.428152492668622,0.619140625,0.0,1
1.888,0.564027370478983,0.529296875,-0.183374083129584,0
0.776,0.373411534701857,0.435294117647059,0.247311827956989,1
1.728,0.486274509803922,0.708661417322835,,0
0.4,,0.745098039215686,0.0224828934506354,1
2.112,1.0,0.734375,,0
1.928,0.576470588235294,0.4921875,,1
2.56,0.717497556207234,0.515686274509804,0.115347018572825,1
1.32,0.421309872922776,0.209803921568627,-0.157281553398058,0
1.496,0.525490196078431,0.511811023622047,,0
0.12,2.17888563049853,0.695014662756598,-0.0293219303604154,0
2.168,1.0,0.78125,,0
3.216,1.85043988269795,0.119745845552297,0.214512582457855,1
2.704,0.356862745098039,0.637795275590551,,0
2.896,0.275659824046921,0.0529411764705882,0.346863468634686,1
3.44,2.95014662756598,0.379765395894428,-0.0524271844660194,1
0.728,0.55425219941349,0.5,0.234604105571848,1
4.576,0.432062561094819,-0.0390625,1.0,0
2.976,0.423529411764706,0.140625,,1
4.736,0.537254901960784,0.59375,,1
4.816,0.349019607843137,0.40625,,0
0.52,0.500488758553275,0.0392156862745098,0.317343173431734,1
0.672,2.21896383186706,0.47998046875,0.427314927925727,1
1.776,0.828934506353861,0.53515625,0.0,1
0.544,0.6158357771261,0.30030959752322,-0.298192771084337,0
5.016,0.311827956989247,0.484375,0.212121212121212,1
4.664,2.02932551319648,0.51513671875,0.321768873686782,1
3.584,1.97262952101662,0.424731182795699,-0.0354368932038835,1
2.904,0.556207233626588,0.5,0.555012224938875,0
4.168,0.432062561094819,0.544921875,1.0,1
0.328,1.98924731182796,0.109481915933529,1.0,0
0.264,1.15347018572825,0.475073313782991,0.553398058252427,1
1.44,1.92766373411535,0.234604105571848,-0.0652920962199313,0
1.072,0.423264907135875,0.189453125,0.173998044965787,1
3.512,0.456500488758553,0.474609375,0.732160312805474,0
2.656,2.17790811339198,0.580078125,0.293183483997068,0
4.736,0.335288367546432,0.0784313725490196,0.0019417475728155,0
2.544,0.384313725490196,0.5703125,,1
4.04,0.232649071358749,0.4609375,0.0,1
0.52,1.97751710654936,0.64990234375,0.180307842658197,0
2.824,0.334310850439883,0.158823529411765,-0.318446601941748,0
3.408,0.301075268817204,0.58984375,0.256109481915934,1
0.384,1.7761485826002,0.56005859375,0.22599560224774,1
4.544,0.346041055718475,0.33921568627451,0.114563106796117,0
0.816,1.7663734115347,0.459921798631476,0.496116504854369,1
2.752,0.359726295210166,0.390625,-1.45138888888889,1
3.208,2.0039100684262,0.419921875,0.128756413388712,0
3.992,2.37634408602151,0.434995112414467,-0.0640776699029126,1
1.128,0.499511241446725,0.140625,0.182041820418204,0
0.36,0.533333333333333,0.4453125,,1
1.76,0.36950146627566,0.509765625,-0.149144254278729,0
2.696,0.265884652981427,0.17843137254902,0.0039100684261974,1
2.632,0.616813294232649,0.43921568627451,0.131964809384164,1
4.84,0.413489736070381,0.6796875,0.810361681329423,0
4.416,0.38514173998045,0.103921568627451,0.26099706744868,1
1.096,0.811339198435973,0.245098039215686,-0.0699029126213592,0
0.496,0.513725490196078,-0.0866141732283465,,0
3.712,2.10654936461388,0.7900390625,0.14903493769851,0
1.016,1.21896383186706,0.239980449657869,1.0,1
4.416,2.21603128054741,-0.150537634408602,0.569508917664305,1
4.888,0.419354838709677,0.416015625,0.241446725317693,0
1.952,0.3841642228739,0.349609375,1.0,1
1.672,1.99315738025415,0.490234375,0.1700464207183,1
1.472,0.468230694037146,0.444272445820433,-0.210843373493976,0
0.888,0.341176470588235,0.5078125,,1
2.856,1.89247311827957,0.654936461388074,0.680674322013193,0
3.2,0.329411764705882,0.3828125,,1
4.048,1.69208211143695,0.5498046875,0.220620571707794,0
0.768,0.479960899315738,0.444272445820433,0.114457831325301,0
4.48,0.564027370478983,0.349609375,0.17220172201722,0
4.968,1.86608015640274,0.139784946236559,0.647691180063523,1
2.928,1.91397849462366,0.58984375,0.166137307598339,0
4.992,0.532746823069404,0.620743034055728,-0.382530120481928,0
2.16,0.270772238514174,-0.0215686274509804,0.296187683284457,1
0.928,0.33822091886608,0.60546875,0.0,1
1.448,1.73411534701857,0.334799608993157,-0.0004886391399951,0
4.04,0.262745098039216,0.7265625,,1
1.544,2.71847507331378,0.244868035190616,0.833374053261666,1
0.88,,0.6015625,,1
4.816,1.78787878787879,0.349951124144673,0.182153846153846,0
3.496,0.509286412512219,-0.029296875,0.140221402214022,0
1.52,0.459433040078201,0.34984520123839,-0.216867469879518,0
4.768,0.364705882352941,0.40625,,0
3.664,2.3782991202346,0.39501953125,0.168336183728317,0
4.544,1.51319648093842,0.470185728250244,-0.0441747572815534,1
2.432,1.0058651026393,0.224828934506354,0.255069631077449,1
1.36,0.541176470588235,0.703125,,0
3.736,0.595307917888563,0.245098039215686,0.664077669902913,0
2.712,2.28641251221896,0.6748046875,-0.0004886391399951,1
1.128,2.06451612903226,0.48486328125,0.154409968238456,1
1.624,0.513725490196078,0.062992125984252,,0
4.8,0.52156862745098,0.236220472440945,,0
1.912,0.517647058823529,0.4765625,,1
4.088,0.222873900293255,0.669921875,0.96969696969697,1
4.104,0.454901960784314,0.8046875,,0
0.112,0.576470588235294,0.546875,,1
2.656,1.76735092864125,0.374877810361681,0.127384615384615,0
3.624,0.546432062561095,0.515479876160991,-0.367469879518072,0
1.992,0.49266862170088,0.111328125,0.183271832718327,0
1.752,0.367546432062561,0.51953125,-0.141809290953545,0
1.472,,0.103921568627451,1.0,1
3.176,2.44770283479961,0.249755620723363,-0.825887743413517,0
0.656,0.587487781036168,0.46484375,-0.220048899755501,0
2.848,2.27565982404692,0.46484375,0.239677498167603,0
4.6,1.66275659824047,0.455078125,1.0,1
3.832,2.01466275659824,0.60009765625,0.227461519667725,0
2.272,0.517647058823529,0.0625,,1
2.648,0.547409579667644,0.201171875,0.202952029520295,0
0.864,0.332355816226784,0.869140625,0.043010752688172,0
1.664,0.458823529411765,0.692913385826772,,0
3.856,0.494117647058824,-0.0236220472440945,,0
0.36,1.96578690127077,0.35009765625,0.180307842658197,0
4.048,0.254901960784314,0.7265625,,1
3.24,0.352941176470588,0.5625,,1
1.544,,0.0039215686274509,1.0,1
4.336,0.454545454545455,0.369969040247678,-0.183734939759036,0
4.952,0.434017595307918,-0.0215686274509804,0.294232649071359,1
1.808,0.592375366568915,0.4453125,0.499511241446725,0
2.376,0.470588235294118,0.546875,,1
1.76,0.26197458455523,0.794921875,1.0,0
0.872,0.423529411764706,0.4375,,0
1.92,1.94428152492669,0.30029296875,0.218421695577816,0
1.224,2.33724340175953,0.58984375,0.229171756657708,0
0.088,0.578690127077224,-0.131372549019608,0.415744157441574,1
4.288,1.54838709677419,0.309872922776149,-0.0415394013439218,0
1.28,0.627450980392157,0.4453125,,1
2.2,0.270772238514174,-0.0019607843137254,0.256109481915934,1
0.272,0.269794721407625,0.416015625,0.768757687576876,1
4.752,0.486274509803922,0.795275590551181,,0
4.232,1.78299120234604,0.394916911045943,0.390461538461538,0
0.92,0.343108504398827,0.599609375,0.0,1
3.064,0.523949169110459,-0.288235294117647,0.0625610948191593,1
1.008,0.388235294117647,0.511811023622047,,0
5.024,0.517647058823529,-0.094488188976378,,0
1.48,1.70772238514174,0.0498533724340176,-0.0004886391399951,0
2.088,0.517647058823529,-0.188976377952756,,0
3.84,0.176470588235294,0.7734375,,0
2.656,3.1485826001955,0.254643206256109,0.184216955778158,1
2.696,2.28836754643206,0.65478515625,-0.0004886391399951,1
2.984,0.599217986314761,0.654296875,0.189638318670577,0
4.744,0.269794721407625,0.0627450980392157,0.446494464944649,1
2.704,0.317647058823529,0.78125,,1
1.128,,-0.147058823529412,0.741935483870968,1
2.936,0.279569892473118,0.0627450980392157,0.343173431734317,1
0.464,1.70185728250244,0.51513671875,0.154898607378451,1
0.544,0.513725490196078,-0.062992125984252,,0
3.624,0.729411764705882,1.453125,,1
4.712,0.481915933528837,0.291015625,0.377613776137761,0
2.184,0.611764705882353,1.421875,,1
4.12,0.549019607843137,0.4921875,,1
0.112,0.317647058823529,0.5625,,1
0.024,2.42815249266862,0.4150390625,-0.081857055589493,0
1.448,0.309803921568627,0.4453125,,0
3.24,0.349951124144673,0.64453125,0.223851417399804,1
1.448,0.533333333333333,0.818897637795276,,0
3.056,0.5386119257087,-0.256862745098039,0.0547409579667644,1
4.168,1.78103616813294,0.280058651026393,0.329342780356707,1
3.896,0.248289345063539,0.60546875,-1.33333333333333,1
0.816,1.70674486803519,0.379765395894428,0.326461538461538,0
2.336,0.760508308895406,0.734375,0.732160312805474,0
0.648,0.584313725490196,0.5,,1
3.936,0.455522971652004,0.23046875,0.220172201722017,0
4.416,0.239491691104594,0.44921875,0.426814268142681,1
2.84,0.615686274509804,0.2421875,,1
3.552,2.07624633431085,0.39501953125,0.141705350598583,0
4.544,0.356862745098039,0.4609375,,1
2.12,0.417399804496579,0.599609375,0.0899315738025415,1
0.888,1.8455522971652,0.56005859375,0.253603713657464,0
0.92,1.60215053763441,0.765395894428152,0.293672123137063,1
3.72,0.258823529411765,0.488188976377953,,0
4.4,0.549019607843137,0.4921875,,1
0.192,0.4,0.1875,,1
0.704,0.432062561094819,0.0627450980392157,0.619417475728155,0
4.808,0.366568914956012,0.0431372549019608,-0.0466019417475728,0
0.76,0.450635386119257,0.60546875,0.0,1
1.52,0.409579667644184,0.775390625,0.740957966764418,0
3.128,0.733137829912023,0.335294117647059,0.274292742927429,1
1.936,0.3841642228739,0.3203125,1.0,1
2.104,0.270588235294118,0.3671875,,0
2.52,0.287390029325513,0.275390625,0.137761377613776,1
1.608,0.43108504398827,0.48046875,0.0537897310513447,0
0.096,0.640273704789834,0.75390625,0.760508308895406,0
0.64,0.423529411764706,0.3828125,,0
0.032,2.14076246334311,-0.155425219941349,0.221353530417786,1
1.272,0.347018572825024,0.384765625,0.164821648216482,1
4.84,0.618768328445748,-0.162745098039216,0.145650048875855,1
1.488,0.244379276637341,0.46484375,0.443792766373412,1
4.016,0.490713587487781,0.0843137254901961,1.02718446601942,0
1.392,0.499511241446725,0.524767801857585,-0.186746987951807,0
4.584,0.310850439882698,0.583984375,1.0,1
3.312,0.512218963831867,0.35546875,-0.0317848410757946,0
1.464,0.248289345063539,0.474609375,0.425219941348974,1
2.576,1.54740957966764,0.484848484848485,-0.0966019417475728,1
4.464,2.35483870967742,0.304985337243402,0.356307692307692,0
2.784,2.25806451612903,0.419921875,0.309797214756902,0
0.76,0.514173998044966,0.4296875,-0.154034229828851,0
4.016,2.18084066471163,0.4951171875,0.223063767407769,0
2.44,2.21505376344086,0.4501953125,0.283410701197166,0
4.728,0.541176470588235,0.5703125,,1
3.84,2.69208211143695,0.249755620723363,0.352797459076472,1
0.68,0.690127077223851,-0.182352941176471,0.23370233702337,1
2.896,0.282352941176471,0.535433070866142,,0
1.928,0.290196078431373,0.3125,,1
3.936,0.288367546432063,0.359375,-1.33333333333333,1
3.104,0.696969696969697,0.595703125,0.0889540566959922,0
3.896,0.337254901960784,0.4375,,1
2.04,0.764705882352941,0.484375,,1
3.072,2.00977517106549,0.240234375,0.168824822868312,0
1.584,0.418377321603128,0.2109375,0.0725707257072571,0
0.128,0.418377321603128,0.185546875,0.325953259532595,0
0.84,0.650048875855327,0.111328125,0.539589442815249,0
0.496,0.500488758553275,0.169921875,0.427174975562072,0
1.352,0.282352941176471,0.421875,,0
3.216,1.16911045943304,1.50097751710655,0.223308086977767,1
4.296,0.598240469208211,0.560546875,1.0,1
4.512,0.727272727272727,0.535294117647059,0.317693059628543,1
0.8,0.758553274682307,0.560546875,0.241446725317693,1
0.688,0.453567937438905,0.46078431372549,0.127077223851417,1
0.16,2.27272727272727,0.43017578125,-0.0592547342700061,0
2.112,2.06549364613881,0.53515625,0.285365257757146,1
4.768,0.421309872922776,0.419607843137255,0.245356793743891,1
4.544,1.75073313782991,0.44482421875,0.866357195211336,0
0.88,0.67741935483871,0.564453125,0.224828934506354,1
1.296,0.517647058823529,0.188976377952756,,0
5.016,0.529411764705882,0.5078125,,1
4.72,1.73411534701857,0.249755620723363,-0.292096219931271,0
0.96,0.905180840664712,0.268627450980392,0.104854368932039,0
2.344,0.290322580645161,0.0784313725490196,0.384993849938499,1
1.488,0.511241446725318,0.48046875,0.264058679706601,0
1.648,0.312805474095797,0.798828125,0.841642228739003,0
3.04,0.341176470588235,0.25,,1
3.512,1.69208211143695,0.31494140625,0.124358661128756,0
1.352,2.64418377321603,0.490224828934506,0.322330097087379,1
2.232,0.52156862745098,0.543307086614173,,0
1.584,0.286412512218964,0.0588235294117647,0.0799507995079951,1
3.96,0.6,0.795275590551181,,0
4.56,0.359726295210166,0.375,0.130987292277615,1
3.912,0.333333333333333,0.421875,,1
4.92,0.713725490196078,1.5,,1
2.512,0.536656891495601,0.5390625,1.0,1
1.88,1.54349951124145,0.28494623655914,0.444905936965551,1
1.496,1.73020527859238,0.35986328125,0.259467383337405,0
1.584,0.643206256109482,0.525490196078431,0.419354838709677,1
1.904,0.274509803921569,0.622047244094488,,0
0.184,0.568627450980392,0.4765625,,1
1.624,,0.590196078431373,1.0,1
0.704,0.422287390029326,0.12109375,0.289052890528905,0
1.56,1.84261974584555,0.56005859375,0.226239921817738,0
4.288,0.256109481915934,0.370588235294118,0.240469208211144,1
2.464,0.326490713587488,0.4453125,-0.122249388753056,0
2.16,1.79276637341153,0.60986328125,0.244319569997557,0
1.04,1.18084066471163,0.280058651026393,1.0,1
3.84,0.345098039215686,0.4375,,0
0.472,1.33235581622678,0.300097751710655,-0.0684178375076359,0
2.792,0.33822091886608,0.990234375,0.519061583577713,0
3.776,1.94623655913978,0.11485826001955,1.0,0
2.216,0.263929618768328,0.69921875,1.0,1
2.52,0.658823529411765,0.34375,,0
1.192,0.696969696969697,-0.0117647058823529,0.17220172201722,1
1.28,0.36078431372549,0.4453125,,1
4.8,1.96480938416422,0.509765625,-0.222357971899817,0
3.56,2.32551319648094,0.0298142717497556,1.0,0
1.024,1.73704789833822,0.43505859375,0.687515269973125,0
4.416,2.03812316715543,-0.0254154447702835,0.199312714776632,0
1.28,0.533333333333333,0.734375,,0
2.528,1.88954056695992,0.0395894428152493,0.0346933789396531,0
0.624,1.76735092864125,-0.0102639296187683,0.600537503053995,0
0.176,1.33431085043988,0.470185728250244,0.518932038834951,1
0.64,0.465298142717498,0.099609375,0.440860215053763,0
3.048,0.537254901960784,0.6875,,1
3.48,0.98533724340176,0.70039100684262,0.284876618617151,1
4.128,0.252199413489736,0.0333333333333333,0.214022140221402,1
2.488,1.95014662756598,0.5,0.171268018568287,1
2.352,0.662745098039216,1.5,,1
1.352,0.509803921568627,0.795275590551181,,0
3.8,0.607843137254902,0.484375,,1
0.784,0.356862745098039,0.578125,,1
3.912,2.8514173998045,0.379765395894428,-0.0366524129505192,0
4.784,0.428152492668622,0.505859375,0.39119804400978,0
4.984,0.411534701857283,0.419921875,0.327468230694037,0
1.12,0.427174975562072,0.34984520123839,-0.0331325301204819,0
3.32,1.90811339198436,-0.285434995112414,0.207427314927926,1
1.224,0.590420332355816,0.856037151702786,-0.147590361445783,0
3.264,0.317647058823529,0.3125,,1
1.56,2.17204301075269,0.73974609375,1.0,1
2.4,2.27761485826002,0.47021484375,0.296848277547032,0
2.496,1.24535679374389,0.464809384164223,-0.0825242718446602,1
1.36,2.40664711632454,0.419921875,-0.207086133170434,0
0.208,1.51710654936461,0.379765395894428,-0.0439828955406231,0
2.216,0.995112414467253,0.23921568627451,1.07961165048544,0
4.256,0.635294117647059,0.732283464566929,,0
4.488,0.741176470588235,0.4296875,,0
4.624,1.88367546432063,0.28494623655914,0.280615384615385,0
2.896,0.473118279569892,0.099609375,0.217712177121771,0
1.016,0.912023460410557,0.274509803921569,0.0174757281553398,0
3.168,2.40469208211144,0.64990234375,0.25604690935744,0
1.576,0.6930596285435,0.0392156862745098,0.0174757281553398,0
4.424,2.17595307917889,0.280058651026393,0.367692307692308,0
0.384,,0.641176470588235,0.0146627565982405,1
2.544,1.26001955034213,0.484848484848485,-0.0936893203883495,1
2.288,0.690196078431373,0.765625,,1
1.96,0.582600195503421,0.484375,-0.156479217603912,0
3.664,0.470185728250244,0.234375,0.15990159901599,0
0.216,2.11534701857282,0.5,-0.0684178375076359,0
3.352,0.412512218963832,0.724609375,0.509286412512219,0
2.072,2.1505376344086,0.455078125,0.228683117517713,0
1.176,0.371456500488759,0.375,0.19941348973607,1
4.112,1.79863147605083,0.4501953125,0.274370877107256,0
0.76,0.36078431372549,0.609375,,1
2.968,0.501960784313725,0.818897637795276,,0
2.664,2.01368523949169,0.159824046920821,0.320791595406792,0
3.32,0.471163245356794,0.380859375,0.20910209102091,0
1.36,0.524926686217009,0.42578125,0.420537897310513,0
3.4,0.486274509803922,-0.165354330708661,,0
4.272,1.55425219941349,0.374877810361681,0.661373075983386,1
0.712,0.532746823069404,0.400390625,-0.193154034229829,0
3.768,0.683284457478006,0.294921875,0.169741697416974,1
0.096,0.333333333333333,0.5703125,,1
2.36,0.739980449657869,0.779296875,0.736070381231672,0
1.672,1.87096774193548,0.56494140625,0.238944539457611,0
3.016,0.49169110459433,0.4453125,0.420537897310513,0
1.88,1.81915933528837,0.34521484375,0.189103347178109,0
1.432,0.541176470588235,0.818897637795276,,0
1.512,0.513725490196078,0.0551181102362205,,0
1.0,0.429130009775171,0.410216718266254,0.207831325301205,0
4.264,0.397849462365591,0.490234375,-0.134474327628362,0
1.76,0.87683284457478,0.229411764705882,0.502912621359223,0
0.288,1.84652981427175,0.55517578125,0.282922062057171,0
3.04,0.267839687194526,0.213725490196078,-0.4,0
4.816,2.04496578690127,0.52001953125,-0.218692730604765,0
2.152,0.348973607038123,0.111328125,0.378299120234604,0
1.992,0.500488758553275,0.294921875,0.148831488314883,1
4.448,2.03714565004888,0.214565004887586,0.171821305841924,0
4.672,1.59139784946237,0.47998046875,1.0,1
4.16,0.435972629521017,0.490234375,-0.141809290953545,0
1.272,,-0.182352941176471,1.0,1
4.568,0.36852394916911,-0.0666666666666667,0.445264452644526,1
2.304,0.423264907135875,0.374613003095975,-0.325301204819277,0
1.24,2.3049853372434,0.58984375,0.227705839237723,0
3.688,0.718475073313783,0.28515625,0.157441574415744,1
4.376,2.03128054740958,0.509765625,0.409479599315905,1
4.184,0.266666666666667,0.4296875,,0
1.848,1.63440860215054,0.359726295210166,0.464940141705351,1
3.448,0.890518084066471,0.0588235294117647,0.0116504854368932,0
0.344,1.90811339198436,0.4951171875,-0.0830788026878436,0
3.112,0.501466275659824,0.560546875,-1.38888888888889,1
3.912,0.549019607843137,0.795275590551181,,0
2.816,2.36656891495601,0.47998046875,0.276325433667237,0
0.952,1.33333333333333,0.169599217986315,1.0,1
1.488,0.421309872922776,0.60546875,0.0,1
0.728,0.690127077223851,0.41015625,0.672531769305963,0
2.328,0.494117647058824,0.390625,,1
2.032,0.280547409579668,0.274509803921569,0.381231671554252,1
4.672,1.48778103616813,0.7099609375,0.872709504031273,0
0.976,0.500488758553275,-0.330078125,0.530791788856305,0
0.84,0.393939393939394,0.2109375,0.269372693726937,0
3.632,0.539589442815249,0.470588235294118,-0.364457831325301,0
0.6,2.39100684261975,0.5,-0.10445937690898,0
4.024,0.478983382209189,0.103921568627451,1.03106796116505,0
1.104,0.72156862745098,0.4921875,,1
0.68,2.09188660801564,0.60009765625,0.270706083557293,0
1.696,0.541176470588235,0.4453125,,0
3.28,1.92961876832845,0.509765625,1.0,1
2.152,0.270588235294118,0.40625,,0
2.104,1.12023460410557,0.199902248289345,0.353774737356462,1
2.72,1.37145650048876,0.325024437927664,0.0378741600488699,0
2.696,0.535679374389052,0.3046875,0.206642066420664,0
2.224,,0.580392156862745,0.0782013685239492,1
3.992,0.666666666666667,0.480314960629921,,0
3.032,0.459433040078201,0.529411764705882,0.0843373493975904,0
0.984,0.403921568627451,0.68503937007874,,0
0.328,0.543499511241447,0.185546875,0.293972939729397,0
2.816,0.415686274509804,0.78740157480315,,0
2.104,0.549019607843137,0.6015625,,1
2.328,1.41055718475073,0.459921798631476,-0.0155339805825243,1
3.072,0.293255131964809,0.223529411764706,-0.413592233009709,0
0.736,0.56078431372549,0.546875,,1
3.216,0.389051808406647,0.359375,-1.34722222222222,1
1.712,1.9169110459433,0.64501953125,0.150256535548497,0
0.432,0.435294117647059,0.53125,,1
3.976,3.20723362658847,0.280058651026393,0.403371610065966,1
2.168,1.92766373411535,0.51513671875,-0.186927306047648,0
0.16,0.466666666666667,0.6875,,0
4.616,0.513196480938416,0.41015625,0.552567237163814,0
2.48,0.999022482893451,0.203921568627451,0.532038834951456,0
4.776,0.309803921568627,0.296875,,1
4.344,2.06842619745846,0.41015625,-0.201588271227856,0
2.632,2.10263929618768,0.134897360703812,0.256291228927437,0
3.776,1.58553274682307,0.43010752688172,-0.0475728155339806,1
2.56,1.86803519061584,0.31982421875,0.267774248717322,0
4.216,0.259042033235582,0.0490196078431373,0.235581622678397,1
4.728,1.73118279569892,0.254643206256109,-0.306987399770905,0
1.616,1.87487781036168,0.490234375,-0.158827122785583,0
0.584,0.43921568627451,0.40625,,0
1.648,0.717647058823529,0.7578125,,1
0.256,1.84848484848485,0.345063538611926,0.337893965306621,1
4.544,0.325513196480938,0.57421875,1.0,1
4.32,0.349019607843137,0.59375,,1
3.04,2.24046920821114,1.38563049853372,0.136615384615385,0
2.744,0.337254901960784,0.692913385826772,,0
3.376,0.156862745098039,0.4375,,0
3.216,0.268817204301075,0.0686274509803922,0.0811339198435973,1
0.952,2.01564027370479,0.5,0.17297825555827,1
4.352,2.11339198435973,0.4150390625,-0.200977397678681,0
4.656,0.377321603128055,0.494140625,0.380254154447703,0
4.168,0.392156862745098,0.5703125,,1
2.48,1.80351906158358,0.444770283479961,0.0250458155161882,0
3.392,0.356862745098039,1.140625,,0
0.128,2.08602150537634,0.4248046875,0.374786220376252,1
0.712,0.698924731182796,0.404296875,0.652981427174976,0
1.984,0.254901960784314,0.598425196850394,,0
4.536,1.72629521016618,0.455078125,0.95797703396042,1
1.584,0.625610948191593,0.279296875,0.0947109471094711,1
2.744,0.298039215686275,0.7890625,,1
1.336,0.973607038123167,0.264907135874878,1.0,1
2.584,0.520039100684262,0.58984375,-1.49305555555556,1
3.688,0.466666666666667,-0.0236220472440945,,0
0.616,0.407843137254902,0.5703125,,1
3.816,0.447702834799609,0.21484375,0.253382533825338,0
2.52,0.500488758553275,0.865234375,0.329423264907136,0
3.672,0.670576735092864,0.264705882352941,0.524271844660194,0
0.248,2.05669599217986,0.330078125,0.142193989738578,0
0.904,1.8533724340176,0.48486328125,0.627656975323723,0
2.08,0.500488758553275,0.640625,-0.132029339853301,0
0.912,0.32156862745098,0.8203125,,1
4.848,0.658823529411765,0.7109375,,1
4.488,2.03323558162268,0.53515625,0.353530417786465,1
4.6,0.518084066471163,0.125,0.325953259532595,0
3.928,1.89931573802542,0.289833822091887,0.349846153846154,0
2.552,2.38905180840665,0.269794721407625,-0.912943871706758,0
1.096,0.717497556207234,1.28515625,0.0,1
3.816,0.382209188660802,0.640625,0.64613880742913,1
2.576,0.639296187683284,0.57421875,1.0,1
4.824,0.606060606060606,0.560546875,0.295210166177908,1
2.368,0.651026392961877,-0.186274509803922,0.0439882697947214,1
0.752,1.73216031280547,0.38514173998045,0.294153846153846,0
3.776,2.35092864125122,0.0498533724340176,0.305846153846154,0
2.752,0.333333333333333,0.4453125,,0
1.104,1.66568914956012,0.2900390625,0.710725629122893,0
2.096,2.04007820136852,0.47998046875,0.221597849987784,0
0.848,0.482352941176471,0.732283464566929,,0
4.24,1.61094819159335,0.199902248289345,0.268041237113402,0
3.808,0.597262952101662,-0.117647058823529,0.0861008610086101,1
0.712,0.545098039215686,0.724409448818898,,0
2.408,0.422287390029326,0.2109375,0.177121771217712,0
3.584,0.726295210166178,-0.196078431372549,0.0234604105571848,1
4.44,0.36852394916911,0.67578125,0.835777126099707,0
3.52,0.975562072336266,0.605083088954057,0.289274370877107,1
1.16,0.517647058823529,-0.031496062992126,,0
0.76,0.517647058823529,-0.0708661417322835,,0
1.432,0.255131964809384,0.474609375,0.400782013685239,1
4.12,1.94525904203324,0.38514173998045,-0.0482590103848503,0
2.912,0.713725490196078,0.8046875,,1
0.896,1.82502443792766,0.43505859375,-0.109346365302382,0
0.112,0.52297165200391,-0.141176470588235,0.408364083640836,1
1.24,1.64907135874878,0.329912023460411,-0.214416615760538,0
4.56,0.587487781036168,0.434984520123839,-0.0933734939759036,0
3.824,0.44672531769306,0.240234375,0.257072570725707,0
1.568,0.666666666666667,0.421875,,0
3.464,0.335288367546432,0.765625,0.715542521994135,0
4.92,0.588235294117647,0.795275590551181,,0
1.288,2.05083088954057,0.490234375,0.108722208648913,1
2.904,0.485826001955034,1.458984375,-1.44444444444444,1
0.576,2.82600195503421,0.280058651026393,0.622526264353775,1
0.656,2.58748778103617,0.294721407624633,0.714879061812851,1
2.664,0.471163245356794,0.390625,0.0513447432762836,0
3.448,0.269794721407625,0.3359375,0.174661746617466,1
3.424,0.458455522971652,0.515625,-0.117359413202934,0
2.968,0.519061583577713,0.48046875,0.506112469437653,0
4.328,0.56078431372549,0.7109375,,1
3.472,0.176470588235294,0.421875,,0
2.896,1.9286412512219,0.450146627565982,-0.0825242718446602,1
0.144,0.416422287390029,0.189453125,0.327183271832718,0
0.016,0.407843137254902,0.40625,,0
0.624,2.06158357771261,0.58984375,0.35597361348644,1
1.536,0.486803519061584,0.51953125,0.19559902200489,0
0.84,0.258823529411765,0.6484375,,0
2.84,1.83870967741935,0.544921875,0.284387979477156,0
3.376,1.83773216031281,0.339687194525904,0.187384615384615,0
1.408,2.42717497556207,0.414956011730205,0.298058252427184,1
3.424,0.36852394916911,0.78515625,0.657869012707722,0
2.64,0.599217986314761,0.445098039215686,0.132942326490714,1
2.752,2.36754643206256,0.264907135874878,-0.882016036655212,0
1.256,2.10752688172043,0.419921875,0.578793061324212,0
3.832,0.631372549019608,0.5,,1
1.264,2.16911045943304,0.5498046875,-0.199144777031155,0
3.776,2.72140762463343,0.164711632453568,0.166093928980527,0
2.784,0.552941176470588,0.4921875,,1
2.096,0.450635386119257,0.12109375,0.180811808118081,0
0.92,0.291300097751711,0.394117647058824,0.358748778103617,1
1.048,0.372549019607843,0.52755905511811,,0
2.192,1.67350928641251,0.52978515625,0.250427559247496,0
0.664,0.535679374389052,0.390092879256966,-0.0512048192771084,0
3.304,0.259042033235582,0.419607843137255,0.0987292277614858,1
2.28,1.81720430107527,0.35009765625,0.263376496457366,0
0.136,0.427450980392157,0.4921875,,1
0.2,0.513725490196078,0.0551181102362205,,0
3.168,0.450635386119257,0.435546875,-1.36111111111111,1
1.728,0.506353861192571,0.1796875,0.121771217712177,0
2.616,1.98044965786901,0.56494140625,0.30197898851698,1
3.232,0.388235294117647,-0.094488188976378,,0
3.176,0.537254901960784,0.818897637795276,,0
0.216,1.93548387096774,0.18475073313783,0.33203029562668,1
3.016,0.32156862745098,1.390625,,0
0.784,0.301960784313725,0.7421875,,1
0.12,2.27859237536657,-0.210654936461388,0.26704129000733,1
4.808,2.06647116324536,0.70039100684262,-0.237018937080024,0
2.16,1.069403714565,0.289833822091887,0.345467871976545,1
2.176,0.363636363636364,0.3046875,0.15990159901599,1
1.72,0.328445747800586,0.0333333333333333,0.107011070110701,1
0.936,0.247058823529412,0.7734375,,0
0.008,2.37145650048876,0.43017578125,-0.0891875381795968,0
1.72,0.558162267839687,0.43010752688172,0.219417475728155,1
0.528,0.603921568627451,0.4765625,,1
1.28,0.605083088954057,1.5,0.0625,1
0.32,0.647058823529412,0.3125,,0
2.848,2.12707722385142,0.56005859375,-0.0004886391399951,1
4.12,0.23921568627451,0.7265625,,1
3.368,2.28445747800587,0.78515625,-0.0004886391399951,1
1.384,0.686274509803922,0.511811023622047,,0
1.576,0.513725490196078,0.062992125984252,,0
4.256,1.86803519061584,0.580078125,0.36599071585634,1
3.464,0.576735092864125,0.744140625,-1.33333333333333,1
4.24,1.90811339198436,0.7197265625,-0.189370800244349,0
1.08,,0.219607843137255,0.576735092864125,1
2.344,1.02639296187683,0.199902248289345,0.282922062057171,1
3.944,2.03128054740958,0.244868035190616,0.2737686139748,0
0.392,0.557184750733138,0.455078125,0.0208333333333333,1
3.48,2.40273704789834,0.104594330400782,1.0,0
3.168,0.407843137254902,0.8203125,,0
0.824,0.604105571847507,0.3203125,0.34440344403444,1
1.36,0.349019607843137,0.7578125,,1
4.928,1.78690127077224,0.314760508308895,0.160923076923077,0
4.832,1.39882697947214,0.365234375,0.704129000732959,0
4.784,1.29912023460411,0.35498046875,0.748595162472514,0
2.336,0.262952101661779,0.43921568627451,0.125122189638319,1
4.416,0.545454545454545,0.220703125,0.14760147601476,0
2.984,0.688172043010753,0.166015625,-1.42361111111111,1
1.504,0.262745098039216,0.75,,1
3.848,0.442815249266862,0.685546875,0.264452644526445,0
0.36,0.6,0.375,,0
1.424,1.91397849462366,0.5498046875,0.222575128267774,0
3.864,0.486803519061584,-0.092156862745098,0.103321033210332,1
2.776,0.3069403714565,0.609375,0.117302052785924,1
2.584,1.78299120234604,0.329912023460411,0.127384615384615,0
3.568,0.490196078431373,-0.0393700787401575,,0
4.624,0.532746823069404,0.291015625,0.477244772447724,1
2.32,0.403714565004888,0.279296875,-1.53472222222222,1
0.536,1.73802541544477,0.0298142717497556,0.81505008551185,0
2.256,0.339198435972629,0.33984375,0.163591635916359,1
3.544,0.972629521016618,0.38514173998045,0.289274370877107,1
3.16,0.521016617790811,0.740234375,0.168704156479218,0
1.008,2.09677419354839,0.325024437927664,0.432615384615385,0
0.44,0.305882352941176,0.3203125,,1
4.184,0.474509803921569,-0.102362204724409,,0
2.752,0.294117647058824,0.7890625,,1
1.08,1.83773216031281,0.5751953125,0.232836550207672,0
3.136,0.415686274509804,-0.047244094488189,,0
4.168,0.36950146627566,0.82421875,1.0,0
4.56,0.290196078431373,0.551181102362205,,0
0.92,1.41153470185728,0.18475073313783,1.0,1
2.392,1.44477028347996,0.55517578125,0.268751526997312,0
2.232,,0.625490196078431,0.0703812316715543,1
1.112,0.263929618768328,0.0588235294117647,0.398826979472141,1
0.816,0.482352941176471,0.755905511811024,,0
0.736,0.523949169110459,0.419921875,-0.176039119804401,0
1.376,0.611764705882353,0.390625,,1
2.016,0.260019550342131,0.9296875,1.0,0
1.472,1.71554252199413,0.0796676441837732,-0.0004886391399951,0
4.528,2.17399804496579,0.5,-0.155772755039707,0
4.736,0.453567937438905,0.429411764705882,0.249266862170088,1
1.344,2.64222873900293,0.685239491691105,0.326699029126214,1
4.608,0.359726295210166,0.245098039215686,0.100970873786408,0
0.04,0.411764705882353,0.421875,,0
0.304,2.18572825024438,0.0195503421309873,-0.792668957617411,0
0.976,2.06158357771261,-0.240469208211144,0.278524309797215,1
2.968,1.90127077223851,0.52490234375,0.94600537503054,1
2.104,1.0,0.7421875,,0
3.104,2.09286412512219,0.580078125,0.275592474957244,0
0.12,0.909803921568627,0.6328125,,0
0.824,0.349019607843137,0.5234375,,1
2.384,2.25317693059629,0.47998046875,0.300757390666992,0
3.032,0.541544477028348,0.10546875,0.264907135874878,0
2.664,1.7683284457478,0.374877810361681,0.126769230769231,0
1.664,0.444770283479961,0.166015625,0.0947109471094711,0
3.328,0.414467253176931,-0.0862745098039216,0.2460024600246,1
2.952,0.270588235294118,0.496062992125984,,0
1.968,0.584313725490196,0.803149606299213,,0
3.448,2.09090909090909,0.43017578125,-0.142944410507025,0
3.264,1.96187683284457,0.0997067448680352,1.0,0
0.536,0.423529411764706,0.4921875,,1
0.632,0.443792766373412,0.125,0.292742927429274,0
0.936,2.02248289345064,0.5,0.178841925238212,1
0.456,0.50733137829912,0.2109375,0.286592865928659,0
4.216,1.68132942326491,1.50097751710655,0.331785976056682,1
3.752,0.443137254901961,0.7578125,,1
2.16,0.405669599217986,0.359375,-1.47222222222222,1
4.84,0.331378299120235,0.185546875,1.0,0
0.24,1.87781036168133,0.280058651026393,0.337161006596628,1
2.744,0.498039215686275,-0.173228346456693,,0
2.744,0.427174975562072,0.329721362229102,-0.105421686746988,0
4.704,0.514173998044966,0.380859375,0.597222222222222,1
4.352,1.84261974584555,0.439882697947214,0.238258877434135,0
3.912,0.626588465298143,0.103921568627451,0.94368932038835,0
3.464,0.737047898338221,0.564453125,0.0,1
2.936,0.521994134897361,0.414860681114551,0.0451807228915663,0
3.736,1.04985337243402,0.28494623655914,0.315416564866846,1
2.152,0.476050830889541,0.201171875,0.180811808118081,0
0.536,0.674509803921569,0.566929133858268,,0
1.04,2.40078201368524,-0.20039100684262,0.241143415587589,1
2.376,2.2297165200391,0.43994140625,0.30197898851698,0
2.824,0.361681329423265,0.4,0.114369501466276,1
4.616,1.05474095796676,0.455034213098729,1.0,1
0.48,2.12609970674487,0.455078125,0.186171512338138,0
1.888,0.761485826001955,0.0529411764705882,0.732038834951456,0
1.864,0.579667644183773,0.314453125,0.118081180811808,1
1.848,0.376470588235294,0.5,,1
2.224,1.71260997067449,0.450146627565982,-0.0024271844660194,1
2.064,2.11925708699902,0.509765625,-0.204031765424557,0
1.232,0.623655913978495,0.194117647058824,-0.12621359223301,0
1.736,0.305962854349951,0.455078125,-1.0625,1
0.176,2.03421309872923,0.509765625,0.428292206205717,1
2.552,0.351906158357771,0.0784313725490196,0.105571847507331,1
3.256,0.343108504398827,0.60546875,0.226783968719453,1
1.128,0.290196078431373,0.3359375,,0
3.272,1.11241446725318,0.164711632453568,0.233325189347667,1
1.624,0.409579667644184,0.560546875,0.0,1
0.6,2.15933528836755,-0.225317693059629,0.273393598827266,1
0.768,0.450980392156863,0.5625,,1
2.44,0.597262952101662,0.654296875,0.781036168132942,0
0.104,2.30596285434995,0.509775171065494,-0.0268784361637141,0
3.568,0.516129032258065,0.73046875,0.0,1
2.392,0.436950146627566,0.0294117647058824,0.412054120541205,1
0.416,1.79569892473118,0.309872922776149,0.161538461538462,0
1.856,0.699902248289345,-0.0019607843137254,0.114391143911439,1
1.08,2.12316715542522,0.124633431085044,-0.0004886391399951,0
2.024,0.290196078431373,0.3515625,,0
3.136,0.537254901960784,0.5703125,,1
4.8,1.28445747800587,0.33984375,0.731737112142683,0
3.464,0.268817204301075,0.294921875,0.170971709717097,1
0.864,0.580645161290323,0.349609375,0.323493234932349,1
3.152,0.49169110459433,0.219607843137255,-0.440776699029126,0
2.072,0.504398826979472,0.98046875,-0.134474327628362,0
2.872,0.352883675464321,0.39453125,0.0224828934506354,1
4.184,1.87781036168133,0.544921875,0.242365013437576,0
1.88,0.349019607843137,0.4375,,0
3.304,0.472140762463343,0.3359375,0.215252152521525,0
1.944,1.37536656891496,0.419843597262952,0.411434155875886,1
0.792,0.654901960784314,0.7265625,,1
4.792,2.04887585532747,0.5048828125,0.285853896897141,1
1.376,1.68328445747801,1.50097751710655,0.182262399218177,1
3.096,0.474509803921569,0.453125,,1
2.616,0.36078431372549,0.5234375,,1
2.624,0.36950146627566,0.39453125,-0.0244498777506112,0
2.072,2.97849462365591,0.369990224828935,0.0266990291262136,1
0.648,0.529411764705882,1.28346456692913,,0
2.784,0.309872922776149,0.158823529411765,0.348093480934809,1
1.592,0.444770283479961,0.474609375,0.0831295843520782,0
2.048,1.77908113391984,0.374877810361681,0.188615384615385,0
2.04,0.442815249266862,1.064453125,0.156211562115621,1
3.568,0.588465298142718,0.525390625,0.389051808406647,1
0.256,2.14173998044966,0.0244379276637341,1.0,0
0.272,0.319648093841642,0.6640625,1.0,1
1.056,1.5405669599218,0.314760508308895,-0.272449602932193,0
0.52,0.35386119257087,0.28515625,0.580565805658057,1
3.296,0.527859237536657,0.37109375,-0.0171149144254279,0
3.424,1.64320625610948,0.330078125,0.125580258978744,0
1.568,0.666666666666667,0.519607843137255,0.423264907135875,1
0.96,0.435972629521017,0.379256965944272,0.231927710843373,0
0.856,0.726295210166178,0.55078125,0.233626588465298,1
4.488,0.395894428152493,0.400390625,0.412512218963832,0
2.648,1.98044965786901,0.5048828125,0.360127046176399,1
3.48,1.75464320625611,0.334799608993157,0.222153846153846,0
4.512,0.556862745098039,0.826771653543307,,0
3.64,1.86021505376344,0.509765625,-0.150274893097129,0
0.96,0.517647058823529,-0.125984251968504,,0
3.688,0.409579667644184,0.529296875,-0.21760391198044,0
2.032,0.359726295210166,0.365234375,1.0,1
4.448,0.391984359726295,0.330078125,0.43108504398827,0
1.136,0.286274509803922,0.3125,,0
2.152,0.266666666666667,0.7109375,,1
2.504,0.674509803921569,0.3125,,0
1.144,0.325513196480938,0.474609375,0.451388888888889,1
0.448,2.05669599217986,0.46484375,0.296848277547032,1
0.728,2.158357771261,0.254643206256109,-0.844215349369989,0
4.184,0.588235294117647,0.3984375,,1
0.152,1.09677419354839,0.690127077223851,0.262154898607378,1
2.696,0.282352941176471,0.3359375,,1
0.688,2.0733137829912,0.59521484375,0.269728805277303,0
1.328,1.82697947214076,0.109481915933529,-0.0004886391399951,0
0.76,0.52156862745098,0.740157480314961,,0
2.112,1.98435972629521,0.6298828125,0.218421695577816,0
2.128,0.253176930596285,0.734375,0.836754643206256,0
0.168,0.734115347018573,0.24609375,0.487781036168133,0
2.904,0.549019607843137,-0.21875,,1
1.264,1.44477028347996,0.52978515625,1.0,1
4.256,1.67839687194526,0.0298142717497556,0.34497923283655,1
1.032,2.02932551319648,0.334799608993157,0.437846153846154,0
4.656,0.49169110459433,0.37109375,0.550122249388753,0
3.824,1.52785923753666,0.434995112414467,-0.0567961165048544,1
0.232,2.08406647116325,0.5048828125,-0.0714722052535125,0
3.264,2.21603128054741,0.61474609375,0.228927437087711,0
4.728,0.336265884652981,0.0784313725490196,0.0077669902912621,0
3.256,0.588235294117647,1.14173228346457,,0
3.944,1.56402737047898,0.5048828125,-0.0004886391399951,1
1.696,0.509803921568627,-0.0236220472440945,,0
1.976,0.519061583577713,0.294921875,0.143911439114391,1
0.296,0.363636363636364,0.375,0.363636363636364,1
2.528,0.647058823529412,0.3671875,,0
3.608,0.466666666666667,0.803149606299213,,0
1.352,0.504398826979472,0.224609375,0.179581795817958,0
1.984,2.8435972629521,0.43010752688172,0.0621359223300971,1
1.288,0.521994134897361,0.384765625,0.515892420537897,0
0.88,1.92570869990225,0.43017578125,0.762521377962375,1
3.568,0.744868035190616,-0.207843137254902,0.0097751710654936,1
1.536,0.435972629521017,0.21484375,0.0688806888068881,0
1.968,0.667644183773216,0.314453125,-1.34722222222222,1
4.864,0.460410557184751,0.345201238390093,-0.337349397590361,0
1.016,0.517647058823529,-0.062992125984252,,0
2.088,0.495601173020528,0.416015625,-0.132029339853301,0
2.744,3.04496578690127,0.359726295210166,-0.0912621359223301,1
3.232,0.36852394916911,0.33984375,-1.34027777777778,1
3.16,0.420332355816227,0.615234375,0.201368523949169,1
1.352,,0.0686274509803922,1.0,1
3.04,0.442815249266862,0.720703125,0.771260997067449,0
4.176,0.474509803921569,-0.0866141732283465,,0
4.12,0.494117647058824,-0.102362204724409,,0
0.248,0.392961876832845,0.515625,-0.156479217603912,0
1.176,,-0.147058823529412,0.902248289345064,1
0.048,0.580645161290323,0.5546875,0.797653958944281,0
1.264,0.388235294117647,1.0703125,,1
2.688,0.439882697947214,0.354489164086687,-0.16566265060241,0
2.328,1.98729227761486,0.5048828125,0.1399951136086,1
4.192,1.70674486803519,0.47021484375,0.357195211336428,0
1.76,0.355816226783969,0.275390625,-1.10416666666667,1
1.344,0.388235294117647,0.4921875,,1
4.44,1.60703812316716,0.439882697947214,-0.033495145631068,1
1.776,1.09579667644184,0.504887585532747,-0.0079413561392791,0
2.84,0.506353861192571,1.10681114551084,-0.0060240963855421,0
2.728,0.545098039215686,0.5625,,1
1.296,0.384313725490196,1.0234375,,1
4.64,0.52156862745098,0.795275590551181,,0
2.064,2.02639296187683,0.5048828125,0.0930857561690691,1
4.888,0.29227761485826,0.33984375,0.652777777777778,1
0.2,0.266666666666667,0.6015625,,1
2.6,2.39687194525904,0.260019550342131,-0.906071019473081,0
1.16,0.329411764705882,0.47244094488189,,0
0.704,2.2375366568915,0.47021484375,0.452479843635475,1
0.632,0.745845552297165,0.291015625,0.487084870848708,1
3.344,0.470185728250244,0.33984375,0.198031980319803,0
4.608,1.82404692082111,0.249755620723363,-0.0824742268041237,0
4.24,0.286274509803922,0.3984375,,0
3.92,0.525904203323558,0.359375,0.206642066420664,1
3.808,1.82795698924731,0.4501953125,-0.185094685400122,0
0.624,0.372549019607843,1.0390625,,1
3.0,1.90420332355816,0.5498046875,1.0,1
3.52,0.254901960784314,0.515625,,1
4.376,2.05180840664712,0.55517578125,0.249694600537503,0
4.648,2.03128054740958,0.509765625,0.324945028096751,1
0.72,0.512218963831867,0.5,0.233626588465298,1
0.168,2.21212121212121,0.390029325513196,0.141846153846154,0
3.048,0.515151515151515,0.1953125,0.218942189421894,0
3.44,0.16078431372549,0.4375,,0
4.352,0.258064516129032,0.454901960784314,0.264907135874878,1
3.944,0.565982404692082,0.384765625,-0.185819070904645,0
0.104,0.300097751710655,0.640625,-1.38194444444444,1
1.384,0.525490196078431,0.7265625,,0
2.328,1.98826979472141,0.2900390625,0.291228927437088,0
3.984,0.301960784313725,0.296875,,0
2.36,2.16617790811339,0.38525390625,0.300757390666992,0
3.168,0.409579667644184,0.0745098039215686,0.134897360703812,1
4.6,0.621700879765396,0.484520123839009,-0.0903614457831325,0
2.6,0.56078431372549,0.740157480314961,,0
4.576,0.363636363636364,-0.0725490196078431,0.445264452644526,1
2.616,2.17595307917889,0.434995112414467,-0.0961165048543689,1
1.016,2.07624633431085,0.329912023460411,0.434769230769231,0
0.72,0.341176470588235,0.7265625,,1
2.216,0.350928641251222,0.3203125,0.161131611316113,1
0.896,0.380392156862745,0.421875,,0
1.736,0.81524926686217,0.490234375,0.0,1
0.752,2.03421309872923,0.254643206256109,-0.835051546391753,0
0.888,,0.5859375,,1
0.696,0.717647058823529,0.015748031496063,,0
1.8,0.647116324535679,0.0039215686274509,0.116851168511685,1
3.84,1.83773216031281,0.30029296875,0.119472269728805,0
2.288,0.259042033235582,0.0941176470588235,0.353013530135301,1
2.08,0.442815249266862,0.5703125,0.0860215053763441,1
3.2,0.565982404692082,0.400390625,0.100244498777506,0
2.008,0.250980392156863,0.488188976377953,,0
3.616,0.525490196078431,1.5,,1
1.016,2.34995112414467,-0.195503421309873,0.254825311507452,1
3.608,2.20918866080156,0.0043988269794721,1.0,0
2.24,2.58553274682307,0.53515625,0.0405570486195944,1
3.232,0.184313725490196,0.40625,,0
4.76,1.01857282502444,0.209677419354839,1.0,1
1.888,0.47843137254902,0.110236220472441,,0
1.152,0.465298142717498,0.1796875,0.50830889540567,0
4.768,0.33822091886608,0.0627450980392157,-0.0233009708737864,0
2.96,0.415686274509804,0.4375,,0
3.92,0.326490713587488,0.5703125,0.757575757575758,1
2.152,2.00293255131965,0.53515625,0.0940630344490594,1
2.0,0.250980392156863,0.566929133858268,,0
1.864,1.81524926686217,0.39990234375,0.176154409968238,0
3.504,0.494117647058824,-0.062992125984252,,0
3.968,0.479960899315738,0.720703125,1.0,0
2.176,2.3088954056696,0.55517578125,0.138529196188615,1
0.952,0.370478983382209,0.166015625,0.227552275522755,0
1.536,0.258823529411765,0.765625,,1
2.024,0.475073313782991,0.12109375,0.182041820418204,0
4.44,0.497556207233627,0.509803921568627,0.311827956989247,1
1.824,0.317647058823529,0.3515625,,1
2.872,0.609970674486804,0.896078431372549,0.0,1
2.152,0.394916911045943,0.57421875,0.0889540566959922,1
3.416,0.346041055718475,0.2109375,0.360703812316716,0
0.096,0.260019550342131,0.89453125,0.626588465298143,0
4.176,0.416422287390029,0.245098039215686,0.879611650485437,0
4.968,2.544477028348,0.4248046875,0.632787686293672,0
2.168,0.631372549019608,0.25,,1
1.76,0.390029325513196,0.415686274509804,0.414467253176931,1
1.728,2.20332355816227,0.11485826001955,-0.0004886391399951,0
0.952,0.510263929618768,-0.408203125,0.533724340175953,0
2.672,0.372549019607843,0.622047244094488,,0
0.68,0.475073313782991,1.193359375,0.336265884652981,0
2.48,0.572825024437928,0.34984520123839,-0.340361445783133,0
4.592,0.30791788856305,0.609375,1.0,1
3.688,0.429130009775171,0.404296875,0.666666666666667,0
1.072,0.418377321603128,0.28515625,0.232472324723247,1
0.504,1.8475073313783,0.48486328125,-0.108735491753207,0
1.048,2.03128054740958,0.625,0.145370144148546,1
4.008,0.567937438905181,0.394736842105263,-0.274096385542169,0
4.752,1.82991202346041,0.48486328125,-0.226634086744044,0
3.488,0.662756598240469,0.529411764705882,0.21603128054741,1
1.552,1.96676441837732,0.53515625,-0.17226634086744,0
3.248,0.377321603128055,0.365234375,0.840664711632454,0
2.688,0.364705882352941,0.637795275590551,,0
3.512,0.462745098039216,0.8359375,,1
3.592,0.320625610948192,0.125,0.409579667644184,0
4.12,1.85630498533724,0.209677419354839,0.337649645736623,1
0.584,0.729411764705882,0.582677165354331,,0
3.744,1.81524926686217,0.374877810361681,-0.0293219303604154,0
1.784,0.451612903225806,0.339009287925697,-0.337349397590361,0
1.016,0.269794721407625,0.303921568627451,0.3841642228739,1
4.872,0.551319648093842,-0.266666666666667,0.173998044965787,1
4.08,0.388235294117647,0.375,,1
1.512,1.36950146627566,0.354838709677419,-0.100183262064753,0
1.072,1.5347018572825,0.325024437927664,-0.268173488087966,0
1.312,1.90127077223851,0.58984375,0.469826533105302,0
2.92,0.47843137254902,-0.0866141732283465,,0
2.048,0.466275659824047,0.14453125,0.180811808118081,0
1.04,,0.841176470588235,0.43108504398827,1
0.112,0.513725490196078,0.102362204724409,,0
2.616,0.455522971652004,0.634765625,0.763440860215054,0
1.376,0.407843137254902,0.40625,,1
0.912,0.494117647058824,0.708661417322835,,0
0.192,0.289345063538612,0.35546875,0.768757687576876,1
0.344,2.06060606060606,0.53515625,0.357195211336428,1
3.656,0.961876832844575,0.219941348973607,0.282433422917176,1
1.432,1.99511241446725,-0.30058651026393,0.181529440508185,1
4.384,1.28152492668622,1.50097751710655,0.78499877840215,1
2.368,0.501960784313725,-0.196850393700787,,0
2.456,1.94330400782014,0.5,0.163694111898363,1
2.128,1.80449657869013,0.61474609375,0.238455900317615,0
1.208,0.663734115347019,0.203921568627451,-0.120388349514563,0
0.656,1.78299120234604,0.39501953125,0.292206205717078,0
2.4,0.473118279569892,0.0333333333333333,0.415744157441574,1
3.88,0.331378299120235,-0.243137254901961,0.286412512218964,1
0.976,0.254901960784314,0.7109375,,0
0.976,0.176470588235294,0.4921875,,1
1.288,1.44965786901271,0.52978515625,1.0,1
3.32,2.47800586510264,0.419843597262952,-0.0786407766990291,1
5.024,0.343108504398827,0.484375,0.21505376344086,1
2.592,2.09579667644184,0.119745845552297,0.166137307598339,0
3.12,0.55425219941349,0.259765625,0.243401759530792,0
3.448,0.44574780058651,0.5,-0.127139364303178,0
4.976,0.288367546432063,0.125,1.0,0
2.36,1.02052785923754,0.195014662756598,0.274859516247251,1
3.024,0.549019607843137,0.53125,,1
0.216,0.282352941176471,0.708661417322835,,0
4.976,0.391006842619746,0.274509803921569,-0.106796116504854,0
1.512,0.47843137254902,0.779527559055118,,0
4.512,0.352941176470588,0.3671875,,1
2.648,2.06451612903226,0.134897360703812,0.28903005130711,0
4.976,1.5307917888563,0.394916911045943,-0.348808796579108,0
2.504,0.50733137829912,0.53515625,1.0,1
0.984,0.546432062561095,0.779296875,0.518084066471163,0
2.152,0.686274509803922,0.4765625,,1
4.608,0.515151515151515,0.140625,0.335793357933579,0
4.352,0.685239491691105,0.0294117647058824,0.362853628536285,1
1.072,0.263929618768328,0.188235294117647,0.394916911045943,1
4.32,0.61485826001955,0.564453125,0.100684261974585,1
4.48,0.611925708699902,0.12109375,1.0,0
4.976,1.42130987292278,0.459921798631476,0.037378640776699,1
1.64,0.563049853372434,0.459921798631476,0.270873786407767,1
0.096,0.952941176470588,0.6875,,0
3.32,0.576470588235294,0.748031496062992,,0
0.376,0.474095796676442,0.0490196078431373,0.722330097087379,0
3.6,0.298039215686275,0.708661417322835,,0
2.32,1.93841642228739,0.28515625,0.287075494747129,0
3.4,0.286274509803922,0.6015625,,1
3.544,0.313725490196078,0.8046875,,0
1.016,0.283479960899316,0.0431372549019608,0.218942189421894,1
0.928,0.517647058823529,-0.0708661417322835,,0
1.592,0.348973607038123,0.76953125,0.704789833822092,0
1.44,0.521016617790811,0.400390625,0.320293398533007,0
4.288,0.474095796676442,0.379256965944272,-0.234939759036145,0
2.312,,-0.0568627450980392,0.0381231671554252,1
1.904,0.469208211143695,0.205078125,0.402737047898338,0
1.448,0.427450980392157,0.5078125,,1
4.68,2.5366568914956,0.43010752688172,-0.037378640776699,1
2.704,0.381231671554252,0.359375,-1.45138888888889,1
4.712,0.412512218963832,0.169921875,1.0,0
2.408,2.27956989247312,0.43505859375,0.294405081847056,0
2.64,0.0352941176470588,0.6171875,,0
2.296,0.247311827956989,0.474609375,1.0,1
0.936,2.36363636363636,0.229716520039101,-0.593356242840779,0
1.0,2.11827956989247,0.325024437927664,0.430769230769231,0
2.16,1.64125122189638,0.199902248289345,-0.497136311569301,0
0.536,0.472140762463343,0.4453125,0.290282902829028,0
3.384,0.387096774193548,0.359375,0.884652981427175,0
3.416,1.66373411534702,0.35009765625,0.12704617639873,0
3.44,0.449657869012708,0.509765625,-0.124694376528117,0
3.528,0.974584555229717,0.535190615835777,0.289274370877107,1
3.256,2.11925708699902,0.28494623655914,-0.694158075601375,0
0.304,0.573802541544477,0.16015625,0.455522971652004,0
1.112,1.73020527859238,0.68505859375,1.0,1
3.496,0.247058823529412,0.421875,,0
3.456,0.273704789833822,0.62890625,0.282502443792766,1
2.072,0.313725490196078,0.7109375,,1
0.528,0.756598240469208,0.42578125,0.541544477028348,0
4.608,1.65493646138807,0.41015625,0.890544832641095,0
4.128,0.313725490196078,0.3515625,,1
3.536,0.469208211143695,0.51953125,0.355816226783969,1
0.584,2.34408602150538,0.5048828125,-0.106291997556506,0
0.248,0.525490196078431,0.7265625,,0
3.832,2.91788856304985,0.294721407624633,-0.0354306658521686,0
1.632,2.04887585532747,0.314760508308895,0.348,0
1.864,0.696969696969697,0.0529411764705882,0.113161131611316,1
3.36,1.78103616813294,0.455078125,0.123625702418764,0
1.28,0.441837732160313,0.150390625,0.489736070381232,0
2.328,0.301960784313725,0.4453125,,0
0.184,0.401759530791789,-0.131372549019608,0.388683886838868,1
3.312,0.398826979472141,0.15625,0.294232649071359,0
0.048,2.05278592375367,0.52490234375,0.470803811385292,1
4.072,0.483870967741935,0.509765625,-0.15158924205379,0
1.888,0.675464320625611,0.33921568627451,0.115621156211562,1
0.4,0.486274509803922,0.5625,,1
0.384,0.466666666666667,0.546875,,1
1.336,0.27843137254902,0.40625,,0
1.72,0.458823529411765,0.46875,,1
3.184,0.499511241446725,0.17578125,0.207872078720787,0
1.64,0.579667644183773,0.509765625,0.679374389051808,1
2.712,0.349019607843137,0.708661417322835,,0
0.576,0.616813294232649,0.564453125,0.636363636363636,1
0.992,0.285434995112414,0.740234375,0.0332355816226784,0
1.072,2.09188660801564,0.199902248289345,-0.0002443195699975,0
4.352,0.525904203323558,-0.263671875,0.154981549815498,0
3.232,1.78396871945259,0.329912023460411,0.149230769230769,0
2.64,0.549364613880743,0.185546875,0.201722017220172,0
2.864,0.583577712609971,0.835294117647059,0.0,1
0.648,0.513725490196078,-0.173228346456693,,0
2.712,0.433040078201369,0.354489164086687,-0.141566265060241,0
2.872,0.580392156862745,0.5078125,,1
1.992,0.284457478005865,0.345098039215686,0.395894428152493,1
1.856,2.2336265884653,0.5751953125,0.241632054727584,0
3.264,0.29227761485826,0.490234375,0.0,1
4.416,1.31378299120235,0.329912023460411,-0.0659743433109346,0
2.448,0.478005865102639,-0.298039215686275,0.0772238514173998,1
4.288,0.662745098039216,1.5,,1
0.408,0.52156862745098,0.3984375,,0
3.08,0.424242424242424,0.291015625,0.193111931119311,1
3.84,0.423529411764706,0.795275590551181,,0
3.376,0.387096774193548,0.390625,0.893450635386119,0
1.288,0.517647058823529,-0.149606299212598,,0
0.576,2.36656891495601,0.59521484375,0.27901294893721,0
0.92,0.915933528836755,0.23921568627451,0.180582524271845,0
4.184,1.97849462365591,0.53515625,-0.174709835064142,0
3.392,0.274682306940371,0.26953125,-1.33333333333333,1
3.296,1.95503421309873,0.0899315738025415,1.0,0
3.32,2.33528836754643,0.4501953125,-0.147831398900428,0
2.088,0.232649071358749,0.13921568627451,1.06407766990291,0
2.896,0.27761485826002,0.12109375,0.287390029325513,0
1.288,2.17790811339198,0.58984375,0.224529684827755,0
1.432,1.82697947214076,0.410068426197458,-0.120952962736714,0
2.016,2.29130009775171,-0.235581622678397,0.319325677986807,1
1.88,0.772238514173998,0.0843137254901961,0.718446601941748,0
4.304,0.405669599217986,0.505859375,-0.0953545232273839,0
0.464,0.394916911045943,0.219607843137255,0.819417475728155,0
0.592,2.34897360703812,0.60009765625,0.27901294893721,0
2.704,0.363636363636364,-0.12156862745098,0.365313653136531,1
1.432,0.423529411764706,0.546875,,1
1.416,0.498039215686275,0.375,,1
2.432,2.24144672531769,0.44482421875,0.286098216467139,0
2.768,0.549019607843137,0.5234375,,1
3.776,0.411534701857283,0.609375,0.589442815249267,1
4.392,0.435972629521017,0.746130030959752,-0.135542168674699,0
1.272,0.270588235294118,0.4375,,0
0.504,0.669599217986315,0.689453125,0.387096774193548,0
0.16,0.398826979472141,0.349609375,-1.33333333333333,1
4.36,0.345098039215686,0.5703125,,1
3.64,0.70772238514174,0.290196078431373,0.442718446601942,0
0.784,2.64027370478983,0.390029325513196,-0.31459987782529,0
1.696,0.602150537634409,0.740234375,0.465298142717498,0
0.736,0.329411764705882,0.71875,,1
3.152,2.71847507331378,0.56005859375,-0.0004886391399951,1
2.64,0.656891495601173,0.28515625,0.141451414514145,1
3.4,1.9247311827957,0.260019550342131,-0.351660939289805,0
3.848,0.486274509803922,-0.031496062992126,,0
3.72,1.67644183773216,0.410068426197458,-0.0344660194174757,1
1.456,0.694037145650049,0.87890625,0.274682306940371,0
3.864,0.341176470588235,0.453125,,1
2.688,0.545098039215686,0.5,,1
2.896,1.94037145650049,0.52978515625,0.814072807231859,1
1.264,0.270588235294118,0.4296875,,0
4.592,0.618768328445748,0.464396284829721,-0.0903614457831325,0
4.488,1.86608015640274,0.544921875,0.257757146347422,0
4.76,3.01759530791789,0.565004887585533,-0.0228155339805825,1
1.616,0.6,0.828125,,1
4.736,0.387096774193548,0.169921875,1.0,0
1.512,1.65591397849462,0.434995112414467,0.287864077669903,1
3.952,0.500488758553275,0.66015625,1.0,0
2.36,0.47843137254902,0.546875,,1
3.296,0.347018572825024,0.544921875,0.231671554252199,1
4.816,0.541176470588235,0.795275590551181,,0
4.608,0.27843137254902,0.488188976377953,,0
1.384,0.260019550342131,0.5546875,0.363636363636364,1
0.36,1.79081133919844,0.55517578125,0.276081114097239,0
0.256,0.513725490196078,0.7109375,,0
1.392,0.411764705882353,0.484375,,1
0.464,0.502443792766373,0.205078125,0.286592865928659,0
4.816,0.47843137254902,0.8046875,,1
2.16,1.91495601173021,0.77001953125,0.219154654287808,0
0.184,,0.0843137254901961,0.10752688172043,1
0.8,0.629521016617791,0.0859375,0.527859237536657,0
4.256,0.39980449657869,0.474609375,-0.136919315403423,0
0.28,0.268817204301075,0.42578125,0.767527675276753,1
2.296,0.264907135874878,0.4,0.157380254154448,1
1.792,0.589442815249267,0.439453125,0.496578690127077,0
2.792,0.290196078431373,0.78125,,1
2.184,0.525490196078431,0.53125,,1
1.16,1.43401759530792,0.329912023460411,-0.247403787416005,0
0.024,2.0791788856305,-0.250733137829912,0.218177376007818,1
2.76,0.329411764705882,0.4375,,0
4.784,0.408602150537634,0.425490196078431,0.244379276637341,1
4.728,0.379276637341153,0.759765625,0.335288367546432,0
3.616,2.4594330400782,0.35986328125,0.168824822868312,0
0.56,0.56989247311828,0.6953125,0.378299120234604,0
0.992,1.26001955034213,0.209677419354839,1.0,1
3.464,0.592156862745098,0.5,,1
0.088,0.619607843137255,0.65625,,1
0.32,0.262952101661779,0.48046875,0.7539975399754,1
3.832,0.567937438905181,-0.498046875,0.618768328445748,0
3.808,0.599217986314761,-0.08984375,0.592375366568915,0
3.448,1.82991202346041,0.61474609375,0.217444417297826,0
3.536,2.12903225806452,0.214565004887586,0.201319325677987,1
2.016,0.36852394916911,0.404296875,1.0,1
4.384,0.549019607843137,-0.21259842519685,,0
2.216,2.87683284457478,0.365102639296188,-0.0048869883934025,0
1.968,2.28250244379277,-0.145650048875855,0.310530173466895,1
3.888,0.61485826001955,0.6953125,0.878787878787879,0
2.72,0.3069403714565,0.240234375,0.333333333333333,0
3.216,0.262952101661779,0.48046875,0.0,1
0.944,0.498039215686275,0.771653543307087,,0
0.592,1.14565004887586,0.325024437927664,-0.150274893097129,0
0.376,0.26197458455523,0.37109375,0.71709717097171,1
2.776,0.346041055718475,0.474609375,-1.45138888888889,1
0.152,0.290196078431373,0.6015625,,1
0.512,0.407843137254902,0.803149606299213,,0
3.304,0.490196078431373,0.503937007874016,,0
0.96,0.316715542521994,0.0843137254901961,0.216482164821648,1
4.832,2.39491691104594,-0.215542521994135,0.734913266552651,1
1.816,0.593352883675464,0.42578125,0.502443792766373,0
0.6,0.411764705882353,0.5625,,1
0.176,0.259042033235582,0.935546875,0.449657869012708,0
1.712,0.674509803921569,1.5,,1
2.168,0.270772238514174,-0.0313725490196078,0.289345063538612,1
0.36,0.347996089931574,0.51953125,-0.188264058679707,0
1.032,0.317647058823529,0.4375,,1
0.464,1.65395894428153,-0.135386119257087,0.297581236257024,1
4.712,0.329411764705882,0.3203125,,1
0.304,0.466666666666667,0.703125,,0
4.872,0.458455522971652,0.354489164086687,-0.343373493975904,0
3.152,1.98142717497556,0.444770283479961,0.0079413561392791,0
4.912,0.44574780058651,0.365325077399381,-0.364457831325301,0
2.216,0.388074291300098,0.111328125,0.387096774193548,0
1.528,0.457478005865103,0.369969040247678,-0.216867469879518,0
1.592,0.751710654936461,0.0627450980392157,0.0640776699029126,0
3.944,0.552941176470588,0.52755905511811,,0
2.408,0.580645161290323,0.575851393188854,-0.346385542168675,0
2.0,0.490713587487781,0.291015625,0.150061500615006,1
4.384,0.373411534701857,0.0392156862745098,0.341747572815534,0
1.616,0.644183773216031,0.708984375,0.359726295210166,0
0.44,0.503421309872923,0.470703125,0.152777777777778,1
0.728,1.86608015640274,0.289833822091887,0.281211825067188,1
0.68,0.368627450980392,0.890625,,1
3.952,0.541176470588235,0.6171875,,1
4.504,1.95796676441838,0.280058651026393,0.0996563573883162,0
1.264,2.26295210166178,0.444770283479961,0.357766990291262,1
4.176,0.552297165200391,0.455108359133127,-0.301204819277108,0
4.984,0.388235294117647,0.4140625,,0
2.488,2.50537634408602,0.419921875,-0.0004886391399951,1
1.904,2.08406647116325,0.35986328125,0.237234302467628,0
0.512,2.56402737047898,0.264907135874878,0.563400928414366,1
4.264,0.527859237536657,-0.484375,0.164821648216482,0
2.84,1.42228739002933,0.53515625,-0.0604764813683568,0
4.544,0.525490196078431,-0.078740157480315,,0
1.144,1.06744868035191,0.695014662756598,1.0,1
3.504,0.668621700879765,0.435546875,0.0,1
4.664,1.80254154447703,0.60009765625,0.296115318837039,0
2.344,1.74584555229717,0.224828934506354,-0.827033218785796,0
4.848,2.42619745845552,0.374877810361681,-0.0043689320388349,1
0.952,1.89540566959922,0.124633431085044,0.107500610798925,0
3.192,0.641251221896383,-0.12156862745098,0.252152521525215,1
1.008,0.38514173998045,0.5546875,0.0,1
2.856,0.392156862745098,0.818897637795276,,0
0.416,0.313725490196078,0.3359375,,1
2.808,0.294117647058824,0.796875,,1
3.92,0.310850439882698,0.0235294117647059,0.274682306940371,1
3.344,0.327468230694037,0.580078125,0.237536656891496,1
4.744,0.44574780058651,0.515625,0.45721271393643,0
3.648,0.458823529411765,0.811023622047244,,0
2.48,0.294232649071359,0.279296875,0.146371463714637,1
4.216,1.94134897360704,0.5498046875,0.352308819936477,1
1.744,2.28836754643206,0.169599217986315,0.0641466208476518,0
0.6,1.78983382209189,0.359726295210166,0.227384615384615,0
2.04,1.86705767350929,0.6201171875,0.230149034937699,0
0.344,0.658846529814272,0.6796875,0.360703812316716,0
4.424,0.590420332355816,-0.172549019607843,0.403444034440344,1
1.848,0.596285434995112,0.435546875,0.52297165200391,0
4.792,0.670588235294118,0.582677165354331,,0
1.64,2.73118279569892,0.260019550342131,0.672611776203274,1
0.904,1.57869012707722,1.50097751710655,0.294649401417053,1
1.536,2.01857282502444,0.544921875,0.143904226728561,1
0.912,0.0156862745098039,0.53125,,1
5.008,0.643137254901961,0.78125,,0
3.224,0.427450980392157,0.796875,,0
1.6,0.437927663734115,0.48046875,0.0684596577017115,0
4.456,0.286274509803922,0.7421875,,0
2.28,0.47843137254902,-0.21259842519685,,0
3.672,1.58357771260997,0.5048828125,0.0295626679697044,1
3.848,1.41544477028348,0.51513671875,-0.0004886391399951,1
2.784,0.317647058823529,0.4375,,0
3.664,0.521016617790811,0.394736842105263,-0.346385542168675,0
1.16,2.22091886608016,0.0043988269794721,-0.0004886391399951,0
1.952,0.518084066471163,0.650390625,0.0478983382209189,1
0.816,0.517647058823529,-0.0866141732283465,,0
1.416,0.517647058823529,-0.094488188976378,,0
0.976,0.433040078201369,0.39938080495356,0.225903614457831,0
0.192,0.741935483870968,0.3046875,0.679374389051808,0
3.24,0.541544477028348,-0.12156862745098,0.249692496924969,1
2.024,0.309803921568627,0.4765625,,1
3.232,1.91397849462366,0.39990234375,0.120693867578793,0
1.464,0.588235294117647,0.559055118110236,,0
3.512,1.75171065493646,0.55517578125,0.220376252137796,0
2.072,0.428152492668622,0.130859375,0.3841642228739,0
0.728,0.41544477028348,0.445098039215686,0.18475073313783,1
3.472,0.590420332355816,0.876470588235294,0.0,1
3.576,0.304007820136852,0.0392156862745098,0.18450184501845,1
0.512,0.675464320625611,0.51953125,0.950146627565982,1
3.632,0.501960784313725,1.03125,,1
2.632,0.549019607843137,0.4921875,,1
3.368,0.87683284457478,0.0980392156862745,-0.166990291262136,0
4.352,1.93548387096774,0.0796676441837732,0.643782066943562,0
4.312,0.603921568627451,0.765625,,1
4.824,0.394916911045943,0.330078125,0.6875,1
0.96,0.279569892473118,0.384313725490196,0.370478983382209,1
3.264,0.377321603128055,0.4453125,0.869990224828935,0
3.424,0.343108504398827,0.224609375,0.365591397849462,0
1.52,1.80938416422287,0.31494140625,0.256779868067432,0
2.896,0.149019607843137,0.75,,0
3.376,0.266862170087977,0.470588235294118,0.144672531769306,1
0.232,0.252199413489736,0.6953125,0.388074291300098,0
1.504,0.650980392156863,1.5,,1
4.088,0.282352941176471,0.2890625,,1
0.632,2.71456500488759,0.970185728250244,0.492233009708738,1
0.064,2.16617790811339,0.4248046875,0.423405814805766,1
1.472,1.49755620723363,0.43010752688172,-0.111178985949908,0
4.488,1.54740957966764,0.455034213098729,-0.0388349514563107,1
1.28,0.596078431372549,0.566929133858268,,0
2.624,0.55327468230694,0.16015625,0.200492004920049,0
1.216,1.77517106549365,0.4951171875,-0.185705558949297,0
0.528,1.94330400782014,0.260019550342131,-0.742268041237113,0
4.44,1.89736070381232,0.3251953125,0.782311263132177,0
2.232,0.27843137254902,0.421875,,0
2.432,0.654901960784314,0.826771653543307,,0
3.392,2.09872922776149,0.0997067448680352,1.0,0
3.184,0.387096774193548,0.330078125,0.715542521994135,0
3.736,0.49169110459433,0.34984520123839,-0.295180722891566,0
4.552,1.83675464320626,0.27001953125,0.265575372587344,0
3.4,0.278592375366569,0.48046875,0.18450184501845,1
2.52,0.616813294232649,0.375,-1.5,1
1.976,2.75464320625611,0.419843597262952,0.0655339805825243,1
2.728,1.96969696969697,0.6201171875,0.286342536037137,0
4.152,0.396078431372549,0.5703125,,1
2.144,1.0,0.75,,0
2.592,1.96676441837732,0.169599217986315,0.348644026386514,1
4.512,0.333333333333333,0.4921875,,1
1.272,2.33626588465298,0.439882697947214,0.355339805825243,1
0.88,2.43988269794721,0.479960899315738,-0.312767257177764,0
1.592,0.443137254901961,0.511811023622047,,0
2.552,2.32649071358749,0.5751953125,0.292694844857073,0
3.48,0.549019607843137,0.4921875,,1
5.024,0.275659824046921,0.130859375,1.0,0
0.928,2.29325513196481,0.234604105571848,-0.600229095074456,0
1.328,0.384313725490196,0.3125,,1
4.264,0.417399804496579,0.455078125,0.30791788856305,0
4.56,2.02737047898338,0.5751953125,0.338138284876619,1
2.672,0.730205278592375,0.28515625,0.146371463714637,1
2.12,0.509803921568627,0.551181102362205,,0
3.432,0.450980392156863,0.390625,,1
3.376,1.58651026392962,0.475073313782991,0.0232131948686622,0
3.568,0.750733137829912,0.309803921568627,0.279611650485437,0
3.528,0.704789833822092,0.525490196078431,0.232649071358749,1
3.712,0.412512218963832,0.314453125,0.618768328445748,0
0.784,0.517647058823529,-0.078740157480315,,0
4.848,0.357771260997067,0.370588235294118,0.242424242424242,1
0.072,0.500488758553275,0.419921875,-0.0880195599022005,0
2.568,0.822091886608016,0.76078431372549,0.250485436893204,0
3.384,0.421309872922776,0.314241486068111,-0.283132530120482,0
0.864,0.498039215686275,0.1484375,,1
2.984,0.278592375366569,0.249019607843137,-0.366990291262136,0
4.264,1.88660801564027,0.47998046875,-0.194868662186927,0
3.816,0.695014662756598,0.69921875,0.650048875855327,0
2.328,0.441837732160313,0.21484375,0.180811808118081,0
2.536,0.501960784313725,-0.165354330708661,,0
4.952,0.303030303030303,0.0294117647058824,0.236559139784946,1
3.792,2.67741935483871,0.229716520039101,0.189003436426117,0
4.8,0.647058823529412,0.5625,,1
1.648,0.407843137254902,0.6171875,,1
3.696,1.78983382209189,0.0899315738025415,0.270950403127291,1
3.328,0.382209188660802,0.37109375,0.931573802541544,0
0.424,1.39980449657869,0.424731182795699,-0.0598656078191814,0
3.272,1.9286412512219,0.5048828125,1.0,1
1.448,2.11827956989247,0.424731182795699,0.288349514563107,1
1.36,0.43108504398827,0.140625,0.454545454545455,0
3.928,1.58260019550342,0.464809384164223,-0.066504854368932,1
1.776,0.325490196078431,0.4453125,,1
1.464,0.518084066471163,0.4609375,0.295843520782396,0
4.92,2.05180840664712,-0.095307917888563,0.669679941363303,1
1.888,2.05767350928641,0.5,-0.237018937080024,0
0.624,2.41739980449658,0.490234375,-0.102626756261454,0
1.208,0.337254901960784,0.5703125,,1
1.952,0.518084066471163,0.419921875,0.178351783517835,0
0.728,0.517647058823529,-0.047244094488189,,0
2.496,0.995112414467253,0.2,0.489320388349515,0
0.944,1.73411534701857,0.51513671875,-0.100794135613928,0
4.688,1.78396871945259,0.60009765625,0.304910823356951,0
3.48,0.444770283479961,0.490234375,-0.144254278728606,0
4.408,0.458823529411765,0.40625,,0
1.992,1.76930596285435,0.359726295210166,0.196,0
2.648,0.537254901960784,0.748031496062992,,0
1.656,0.620723362658847,0.89453125,0.417399804496579,0
1.472,0.371456500488759,-0.0470588235294118,0.0836408364083641,1
2.128,0.301075268817204,0.580078125,1.0,1
2.344,0.454901960784314,0.5859375,,1
3.472,0.633431085043988,0.334365325077399,-0.337349397590361,0
2.8,0.0549019607843137,0.796875,,0
2.608,0.294117647058824,0.3125,,1
0.264,1.06842619745846,0.195014662756598,0.329342780356707,1
0.176,0.733137829912023,0.28515625,0.689149560117302,0
1.376,1.96285434995112,0.58984375,0.222575128267774,0
0.384,1.82795698924731,0.51513671875,-0.0885766646304215,0
1.352,0.370478983382209,0.384313725490196,-0.172815533980583,0
3.688,0.270588235294118,0.511811023622047,,0
0.472,0.684261974584555,0.53921568627451,0.0,1
4.776,0.462365591397849,0.599609375,0.811339198435973,0
3.88,0.436950146627566,0.32421875,0.260762607626076,0
4.592,1.87390029325513,-0.0004887585532746,0.223552406547764,0
2.976,0.294117647058824,0.47244094488189,,0
4.6,1.95698924731183,0.195014662756598,0.291384615384615,0
2.16,1.87194525904203,0.104594330400782,-0.0004886391399951,0
4.52,0.329423264907136,0.319607843137255,0.124271844660194,0
4.456,0.541176470588235,-0.102362204724409,,0
1.064,1.67644183773216,0.3798828125,0.703884681162961,0
3.328,0.500488758553275,0.35546875,-0.0464547677261614,0
4.696,0.47843137254902,-0.0708661417322835,,0
2.104,0.263929618768328,0.209803921568627,1.08155339805825,0
0.296,0.309803921568627,0.7265625,,1
0.904,1.28641251221896,0.504887585532747,0.511650485436893,1
1.792,0.545454545454545,0.1953125,0.150061500615006,0
3.44,2.09970674486804,0.43994140625,-0.1435552840562,0
3.672,0.247058823529412,0.5078125,,1
3.816,0.375366568914956,0.429411764705882,0.304007820136852,1
0.736,2.10654936461388,0.419921875,-0.112400733048259,0
3.568,0.576470588235294,0.4296875,,0
3.848,0.250980392156863,0.543307086614173,,0
2.744,1.74095796676442,0.144672531769306,0.320547275836795,1
3.576,0.501466275659824,1.0703125,0.0,1
4.08,2.97556207233627,0.540078201368524,-0.0587378640776699,1
1.664,2.16520039100684,0.169599217986315,0.0412371134020619,0
3.528,0.735092864125122,0.0333333333333333,0.0,1
4.056,0.493646138807429,0.474609375,-0.156479217603912,0
1.408,1.74584555229717,0.239980449657869,-0.0004886391399951,0
1.248,0.310850439882698,0.46484375,0.238514173998045,1
1.36,2.02443792766373,0.509765625,0.0935743953090643,1
0.664,1.94623655913978,0.0043988269794721,0.526752992914732,0
2.648,0.457478005865103,0.564453125,0.125122189638319,1
2.984,2.12609970674487,0.229716520039101,-0.875143184421535,0
0.328,1.03519061583578,0.260019550342131,0.385291961886147,1
4.784,1.71260997067449,0.55517578125,0.354752015636452,0
2.096,0.473118279569892,0.318885448916409,-0.331325301204819,0
0.384,1.42913000977517,0.544965786901271,-0.0537568723274282,0
4.632,0.66080156402737,0.75,0.822091886608016,0
1.856,0.403921568627451,0.7421875,,0
0.272,1.82600195503421,0.39980449657869,0.336183728316638,1
2.832,2.34017595307918,0.47998046875,0.257268507207427,0
1.712,0.509803921568627,0.4296875,,0
0.728,0.419354838709677,0.140625,0.285362853628536,0
2.072,,0.129411764705882,0.422287390029326,1
4.232,0.645161290322581,-0.231372549019608,0.166177908113392,1
3.632,2.4574780058651,0.35009765625,0.17102369899829,0
1.16,2.11534701857282,0.154936461388074,0.215489860737845,1
0.416,0.447058823529412,0.4453125,,1
4.128,0.396078431372549,0.546875,,1
1.464,,0.0627450980392157,1.0,1
0.928,0.421309872922776,0.505859375,0.119804400977995,0
2.776,1.30400782013685,0.329912023460411,0.0238240684178375,0
0.2,0.257086999022483,0.0686274509803922,0.0,1
4.36,2.28250244379277,0.47509765625,0.65795260200342,0
2.744,0.358748778103617,0.708984375,0.463343108504399,1
2.2,0.588235294117647,1.5,,1
2.44,0.32156862745098,0.4453125,,1
0.344,0.547409579667644,0.169921875,0.443792766373412,0
1.944,0.545454545454545,0.33984375,0.136531365313653,1
2.416,0.344086021505376,0.494140625,-0.124694376528117,0
4.472,0.533333333333333,-0.0393700787401575,,0
2.256,0.486274509803922,0.795275590551181,,0
0.792,1.79374389051808,0.209677419354839,-0.799541809851088,0
4.4,0.337254901960784,0.515625,,1
0.192,0.467253176930596,0.515625,-0.136919315403423,0
3.576,1.92375366568915,0.5498046875,-0.134392180818571,0
1.968,0.529411764705882,0.0236220472440945,,0
4.2,1.72629521016618,0.770283479960899,0.329342780356707,1
0.84,2.06353861192571,0.47509765625,0.579526020034205,0
2.48,2.05571847507331,0.47509765625,0.264598094307354,0
1.376,0.686274509803922,0.440944881889764,,0
1.792,2.26588465298143,0.39980449657869,0.0572737686139748,0
2.648,0.427174975562072,0.39453125,0.0146699266503667,0
4.472,2.03128054740958,0.52978515625,0.358905448326411,1
1.376,0.499511241446725,0.720703125,0.691104594330401,0
1.152,2.13294232649071,0.124633431085044,0.215734180307843,1
2.904,0.315738025415445,-0.0862745098039216,0.0918866080156403,1
2.88,0.552941176470588,0.6328125,,1
1.28,0.388235294117647,1.0546875,,1
2.992,0.274682306940371,0.233333333333333,-0.370873786407767,0
4.504,0.389051808406647,0.201171875,0.479166666666667,1
3.944,0.388074291300098,0.525390625,0.231671554252199,0
4.144,0.450980392156863,0.78125,,0
2.784,2.80938416422287,0.280058651026393,0.141216711458588,1
1.072,0.517647058823529,-0.0866141732283465,,0
2.088,0.247058823529412,0.47244094488189,,0
2.0,0.941348973607038,0.334799608993157,-0.0036652412950519,0
3.416,0.16078431372549,0.4296875,,0
5.008,0.691104594330401,0.3,0.397293972939729,1
2.184,0.396871945259042,0.37109375,-1.47916666666667,1
3.768,0.396871945259042,0.37109375,0.504398826979472,0
0.536,2.21212121212121,-0.165689149560117,0.283899340337161,1
1.872,1.56402737047898,0.294721407624633,0.4500366479355,1
1.28,1.44868035190616,0.5498046875,1.0,1
3.8,0.449657869012708,0.201171875,0.2460024600246,0
3.88,1.86021505376344,0.124633431085044,0.970681651600293,0
0.712,2.02834799608993,0.580078125,0.150745174688493,1
4.864,1.86412512218964,0.39990234375,0.686293672123137,0
3.224,0.378299120234604,0.380859375,0.793743890518084,0
1.352,0.517647058823529,-0.0708661417322835,,0
3.68,1.82306940371456,0.11485826001955,0.260688981187393,1
4.216,0.376470588235294,0.5859375,,1
1.048,0.325490196078431,1.375,,0
4.68,1.90909090909091,0.509765625,-0.213194868662187,0
1.32,0.333333333333333,0.44921875,0.151291512915129,1
4.8,0.336265884652981,0.24609375,1.0,0
4.888,0.741176470588235,0.5703125,,1
4.024,1.9208211143695,0.0948191593352884,0.350842902516492,1
4.28,0.256109481915934,0.33921568627451,0.238514173998045,1
3.688,2.03421309872923,0.51513671875,0.84803322746152,1
3.368,1.7683284457478,0.44482421875,0.124358661128756,0
4.584,0.356862745098039,0.4453125,,1
3.712,0.471163245356794,0.08984375,0.495601173020528,0
3.776,1.47996089931574,0.61474609375,0.0249205961397508,1
1.384,0.373411534701857,0.505882352941176,0.393939393939394,1
0.768,0.530791788856305,0.0392156862745098,0.475728155339806,0
0.08,1.18377321603128,0.39980449657869,0.224529684827755,1
1.744,0.372549019607843,0.78125,,0
0.216,0.619607843137255,0.4765625,,1
3.824,0.639296187683284,0.4296875,-0.207823960880196,0
2.272,0.462745098039216,0.125,,1
1.584,0.447058823529412,0.6171875,,1
4.368,0.67644183773216,0.123529411764706,0.371463714637146,1
2.464,0.655913978494624,0.5390625,0.126099706744868,1
3.608,1.96969696969697,0.289833822091887,0.22697288052773,1
4.36,1.71945259042033,0.490224828934506,-0.0354368932038835,1
2.864,0.483870967741935,0.365234375,0.217712177121771,0
1.64,0.259042033235582,0.0392156862745098,0.0910209102091021,1
1.12,0.484848484848485,0.169921875,0.512218963831867,0
2.728,0.6158357771261,0.404296875,0.229828850855746,0
0.56,0.3841642228739,0.3359375,0.222222222222222,1
0.048,0.355816226783969,0.294921875,0.736777367773678,1
3.088,0.458823529411765,0.75,,1
3.248,1.78005865102639,0.855327468230694,0.212802345467872,1
2.056,0.32156862745098,0.734375,,1
0.368,0.587487781036168,0.400390625,-0.0972222222222222,1
1.368,0.286274509803922,0.4140625,,0
0.848,0.537254901960784,0.2265625,,1
2.616,0.482893450635386,-0.137254901960784,0.373923739237392,1
3.344,0.392156862745098,0.8125,,0
2.192,1.0,0.7734375,,0
3.488,0.501960784313725,0.724409448818898,,0
0.8,0.642228739002933,0.3046875,0.359163591635916,1
1.656,2.04105571847507,0.4150390625,1.0,1
3.712,0.503421309872923,0.329721362229102,-0.313253012048193,0
3.552,2.09384164222874,0.134897360703812,0.208160273637918,1
0.088,1.91202346041056,0.414956011730205,0.448058252427184,1
2.944,2.10850439882698,0.55517578125,-0.0004886391399951,1
1.096,1.74389051808407,0.6748046875,1.0,1
0.568,0.726295210166178,0.0137254901960784,0.29520295202952,1
3.936,0.571847507331378,0.375,-0.185819070904645,0
1.424,0.317693059628543,0.28515625,0.111931119311193,1
2.696,0.494117647058824,-0.133858267716535,,0
3.944,0.298142717497556,0.284313725490196,0.267839687194526,1
4.744,0.335288367546432,0.0686274509803922,-0.003883495145631,0
3.608,0.408602150537634,0.5,-0.193154034229829,0
1.416,0.427174975562072,-0.12156862745098,0.0959409594095941,1
1.896,0.27843137254902,0.68503937007874,,0
1.856,1.81720430107527,0.55517578125,1.0,1
3.888,2.33137829912023,-0.215542521994135,0.345467871976545,1
1.024,0.425219941348974,0.369969040247678,0.180722891566265,0
3.928,0.267839687194526,0.39453125,-1.33333333333333,1
3.128,0.518084066471163,0.240234375,0.204182041820418,0
3.16,1.24144672531769,0.304985337243402,0.212558025897874,1
0.152,0.416422287390029,0.185546875,0.327183271832718,0
0.648,0.737047898338221,0.384313725490196,0.247232472324723,1
4.08,0.450980392156863,0.8046875,,0
3.12,0.172549019607843,0.3671875,,0
1.408,2.02737047898338,0.52490234375,0.0984607867090154,1
2.728,0.36852394916911,0.359375,-1.45138888888889,1
0.432,0.495601173020528,0.5703125,1.0,1
2.832,0.297165200391007,0.3359375,-1.45833333333333,1
4.2,0.549019607843137,0.515625,,1
0.216,0.364705882352941,0.2109375,,1
1.496,0.266666666666667,0.75,,1
4.184,0.299120234604106,0.111328125,1.0,0
1.24,1.99217986314761,0.5,-0.193036041539401,0
0.224,0.253176930596285,0.708984375,0.393939393939394,0
2.248,1.70869990224829,0.109481915933529,0.0002443195699975,0
2.752,0.545098039215686,0.5625,,1
4.632,1.58748778103617,0.43017578125,0.889811873931102,0
3.248,2.48778103616813,0.5849609375,-0.0004886391399951,1
4.52,0.674486803519062,0.71484375,0.829912023460411,0
3.104,2.05767350928641,0.304985337243402,0.242609333007574,1
4.664,1.59335288367546,0.48486328125,1.0,1
3.12,2.31573802541544,0.240234375,0.16296115318837,0
0.84,0.747800586510264,0.57421875,0.237536656891496,1
1.88,0.966764418377322,0.349951124144673,0.0177153329260843,0
4.456,1.18084066471163,0.174975562072336,0.86904471048131,1
3.0,0.619607843137255,0.5859375,,1
4.344,0.451612903225806,0.345201238390093,-0.174698795180723,0
0.192,0.588235294117647,0.4765625,,1
0.0,0.631372549019608,0.5703125,,1
4.896,0.690196078431373,0.7890625,,0
4.936,0.67843137254902,1.5,,1
1.112,0.308895405669599,0.48046875,0.491442542787286,0
2.192,0.290322580645161,0.143137254901961,0.300123001230012,1
3.632,1.89931573802542,0.229716520039101,0.235524065477645,1
2.96,0.496578690127077,0.64453125,0.239491691104594,0
0.152,0.450980392156863,0.375,,0
0.608,0.752688172043011,0.294921875,0.505535055350554,1
2.704,1.75073313782991,0.394916911045943,0.122461538461538,0
0.16,1.08797653958944,0.640273704789834,0.26704129000733,1
4.328,0.318670576735093,0.095703125,1.0,0
4.536,0.266666666666667,0.796875,,0
0.312,0.565004887585533,0.166015625,0.452590420332356,0
3.592,0.713587487781036,-0.186274509803922,0.0303030303030303,1
2.728,0.305962854349951,0.220703125,0.332355816226784,0
3.184,0.265884652981427,0.474609375,0.0,1
1.592,2.82795698924731,0.254643206256109,0.746884925482531,1
0.456,0.603128054740958,0.734375,1.0,1
4.584,0.530791788856305,0.4453125,0.530562347188264,0
0.424,0.790811339198436,0.67578125,0.377321603128055,0
1.68,0.609970674486804,0.83984375,0.448680351906158,0
2.856,0.27843137254902,0.4609375,,0
0.064,0.301960784313725,0.614173228346457,,0
0.472,0.537254901960784,0.46875,,1
1.16,0.450980392156863,0.7421875,,1
3.08,1.40957966764418,0.414956011730205,0.19496701685805,1
2.728,3.09286412512219,0.414956011730205,-0.0922330097087379,1
1.704,0.894428152492669,0.294117647058824,0.359223300970874,0
1.632,2.01075268817204,0.199902248289345,0.0206185567010309,0
0.896,1.31182795698925,0.509775171065494,0.510679611650485,1
4.888,1.58064516129032,0.53515625,0.901539213290985,1
0.856,2.03812316715543,0.109481915933529,0.271927681407281,0
1.792,1.78787878787879,0.104594330400782,0.243097972147569,1
2.872,0.284457478005865,0.125,0.294232649071359,0
1.552,0.38514173998045,0.76953125,0.709677419354839,0
2.632,0.556207233626588,0.400390625,0.36950146627566,0
1.544,0.420332355816227,0.28515625,0.0922509225092251,1
4.992,0.279569892473118,0.125,1.0,0
4.04,0.44574780058651,1.5,1.0,0
1.64,0.458823529411765,0.724409448818898,,0
3.616,1.61290322580645,0.4599609375,-0.0004886391399951,1
1.592,0.81622678396872,0.484848484848485,0.286893203883495,1
0.056,0.258823529411765,0.515625,,1
0.584,0.698924731182796,0.28515625,0.523985239852399,1
1.048,0.317647058823529,0.4609375,,1
4.888,0.545098039215686,-0.149606299212598,,0
4.176,0.383186705767351,0.490234375,0.0,1
1.904,0.785923753665689,0.14453125,-1.29166666666667,1
3.408,0.328445747800586,0.490196078431373,0.16911045943304,1
2.368,0.309803921568627,1.15625,,0
4.68,0.482352941176471,-0.0551181102362205,,0
0.192,2.3802541544477,0.169599217986315,-0.823596792668958,0
3.352,1.8455522971652,0.309872922776149,0.178153846153846,0
2.728,0.371456500488759,1.16015625,0.534701857282502,1
3.048,1.92570869990225,0.56005859375,1.0,1
1.232,2.03910068426197,0.0146627565982405,-0.0004886391399951,0
1.192,0.371456500488759,0.3359375,0.190651906519065,1
3.536,0.325513196480938,0.134765625,0.396871945259042,0
1.064,,0.676470588235294,0.521994134897361,1
2.68,1.7683284457478,0.390029325513196,0.125230769230769,0
2.448,0.329423264907136,0.51953125,-0.122249388753056,0
4.856,0.248289345063539,0.490234375,0.223851417399804,1
2.928,1.9960899315738,0.0444770283479961,0.875152699731248,0
2.48,0.432062561094819,-0.276470588235294,0.0889540566959922,1
3.904,0.388235294117647,0.8203125,,1
1.952,0.587487781036168,0.494140625,-0.161369193154034,0
3.576,0.300097751710655,0.279296875,0.150061500615006,1
1.808,0.263929618768328,1.5,1.0,0
0.12,2.03421309872923,0.509765625,0.45199120449548,1
1.168,1.60508308895406,0.56982421875,1.0,1
4.424,2.36363636363636,0.4150390625,-0.183262064752596,0
3.224,0.633431085043988,0.223529411764706,-0.423300970873786,0
2.92,0.549364613880743,0.98046875,-1.4375,1
4.264,2.05767350928641,0.61474609375,0.492303933545077,1
3.152,2.36559139784946,0.509765625,-0.153329260843005,0
1.152,0.63049853372434,0.390625,0.672531769305963,0
3.424,0.411764705882353,0.3671875,,1
0.432,0.392156862745098,0.7265625,,0
0.2,0.6,0.4765625,,1
3.304,0.346041055718475,0.57421875,0.232649071358749,1
1.04,2.00293255131965,0.334799608993157,0.439384615384615,0
1.064,0.420332355816227,0.374613003095975,0.0933734939759036,0
0.256,0.327468230694037,0.654296875,1.0,1
3.48,0.494117647058824,-0.118110236220472,,0
4.688,0.545098039215686,0.53125,,1
2.192,0.274509803921569,0.7734375,,1
3.072,0.211764705882353,0.3515625,,0
0.952,1.87976539589443,0.4599609375,0.984363547520156,1
3.24,0.431372549019608,0.8359375,,0
1.104,0.573802541544477,0.416015625,0.627565982404692,0
0.352,1.79863147605083,0.56005859375,0.276569753237234,0
4.768,1.74975562072336,0.359726295210166,0.208,0
3.344,1.94916911045943,0.65478515625,1.0,1
1.248,2.05180840664712,0.53515625,0.126557537258734,1
3.936,2.05962854349951,0.239980449657869,0.2737686139748,0
4.752,0.335288367546432,0.0745098039215686,-0.0116504854368932,0
1.68,0.388074291300098,0.470703125,-0.058679706601467,0
1.152,1.48875855327468,0.52490234375,-0.166768478924863,0
3.944,0.244379276637341,0.650390625,0.0,1
0.928,0.342130987292278,0.164705882352941,0.215252152521525,1
0.16,0.259042033235582,0.96484375,0.476050830889541,0
0.848,0.405669599217986,-0.0411764705882353,0.225092250922509,1
2.248,0.533333333333333,0.8125,,1
1.992,0.528836754643206,0.455108359133127,-0.370481927710843,0
3.84,1.40566959921799,0.52978515625,-0.0004886391399951,1
2.272,2.56500488758553,0.730205278592375,-0.0030543677458766,0
4.616,0.56078431372549,0.75,,0
0.552,2.2375366568915,-0.155425219941349,0.2799902272172,1
1.12,0.559139784946237,0.66015625,0.256109481915934,0
2.64,0.392156862745098,0.582677165354331,,0
4.592,0.333333333333333,0.28515625,0.460024600246002,1
3.76,0.563049853372434,0.203921568627451,0.70873786407767,0
1.88,0.396078431372549,0.96875,,1
1.224,,-0.182352941176471,1.0,1
1.0,1.8514173998045,0.149560117302053,0.0464207182995358,0
4.4,1.66177908113392,0.444770283479961,-0.0325242718446602,1
4.272,0.526881720430108,-0.498046875,0.166051660516605,0
4.632,1.78690127077224,0.234604105571848,-0.124856815578465,0
1.536,0.32258064516129,0.158823529411765,0.0762607626076261,1
0.024,0.465298142717498,0.434984520123839,-0.346385542168675,0
0.584,2.35972629521017,0.60009765625,0.27901294893721,0
3.824,0.377321603128055,0.0941176470588235,0.163245356793744,1
4.896,2.16617790811339,-0.255620723362659,0.684339115563157,1
1.168,0.73802541544477,0.51953125,0.0,1
2.432,0.494117647058824,0.3125,,0
1.216,0.392156862745098,0.921875,,1
1.152,1.44672531769306,0.345063538611926,-0.249236408063531,0
1.56,,0.0588235294117647,1.0,1
4.096,1.65786901270772,0.55517578125,0.224285365257757,0
4.016,0.235581622678397,0.455078125,0.0,1
4.824,0.426197458455523,0.923828125,0.811339198435973,0
2.488,0.681329423264907,0.25,-1.50694444444444,1
2.208,0.463343108504399,0.30078125,0.18450184501845,0
3.272,0.302052785923754,0.490234375,0.0,1
3.808,0.532746823069404,0.845098039215686,0.796116504854369,0
2.28,1.67741935483871,0.144672531769306,0.0002443195699975,0
3.712,1.6911045943304,0.424731182795699,-0.033495145631068,1
2.232,1.64418377321603,0.229716520039101,-0.627720504009164,0
1.984,0.537254901960784,0.53125,,1
2.44,0.433040078201369,0.505859375,0.182041820418204,0
3.544,2.29912023460411,0.229716520039101,-0.147766323024055,0
4.624,0.620723362658847,0.444272445820433,-0.0903614457831325,0
3.312,0.409579667644184,0.494140625,0.0,1
1.504,2.43988269794721,-0.205278592375367,0.169313462008307,1
3.624,2.4613880742913,0.33984375,0.170535059858295,0
2.328,0.689149560117302,-0.150980392156863,0.0381231671554252,1
3.936,2.38123167155425,0.43017578125,-0.187538179596823,0
0.064,0.599217986314761,0.67578125,0.785923753665689,0
2.616,0.464320625610948,0.325077399380805,-0.246987951807229,0
1.712,0.712609970674487,0.60546875,0.825024437927664,1
4.24,0.610948191593353,0.5703125,0.0498533724340176,1
3.344,0.243401759530792,0.6640625,-1.33333333333333,1
1.848,0.407843137254902,0.7109375,,0
3.128,2.72238514173998,0.5498046875,-0.0004886391399951,1
0.024,0.72156862745098,0.265625,,1
3.608,1.25806451612903,0.349951124144673,0.0097739767868051,0
4.432,2.17790811339198,-0.0454545454545455,0.595406792084046,1
4.192,0.549019607843137,0.515625,,1
4.536,2.03910068426197,0.56005859375,0.34302467627657,1
2.504,0.986314760508309,0.209803921568627,0.467961165048544,0
3.192,2.65102639296188,0.53515625,-0.0004886391399951,1
4.4,0.314760508308895,0.419921875,0.354166666666667,1
1.888,0.578690127077224,0.599609375,0.0234604105571848,1
3.168,0.464320625610948,-0.498046875,0.239491691104594,0
0.664,,-0.0117647058823529,0.26099706744868,1
0.432,0.490196078431373,0.421875,,0
0.016,0.627450980392157,0.5625,,1
4.32,0.423529411764706,0.606299212598425,,0
2.336,1.39882697947214,0.439882697947214,-0.0169902912621359,1
3.128,0.466275659824047,0.5703125,0.189638318670577,1
3.68,0.435972629521017,0.419921875,0.683284457478006,0
4.448,1.7702834799609,0.43505859375,0.728805277302712,1
2.544,1.96089931573803,0.60009765625,0.208404593207916,1
2.096,2.79178885630499,0.410068426197458,0.0194174757281553,1
3.832,1.8494623655914,0.33984375,0.11800635230882,0
0.2,2.20527859237537,0.0298142717497556,1.0,0
2.768,1.45063538611926,0.419921875,-0.0574221136224801,0
0.608,0.451612903225806,0.12109375,0.292742927429274,0
1.592,0.695992179863148,0.12109375,0.435972629521017,0
1.904,1.51612903225806,0.475073313782991,0.0932038834951456,1
5.016,0.367546432062561,0.254901960784314,-0.12621359223301,0
3.88,0.624633431085044,0.0843137254901961,0.904854368932039,0
2.768,1.93352883675464,0.52001953125,0.583923772294161,1
1.952,0.271749755620723,0.865234375,1.0,0
1.36,2.63636363636364,0.424731182795699,0.318446601941748,1
1.728,0.801564027370479,0.78515625,0.0,1
0.336,0.249266862170088,0.46078431372549,0.0,1
2.632,3.00977517106549,0.249755620723363,0.196921573418031,1
0.36,0.462745098039216,0.75,,0
2.56,0.580392156862745,0.692913385826772,,0
3.224,0.575757575757576,-0.12156862745098,0.248462484624846,1
0.808,0.350928641251222,0.335294117647059,0.282502443792766,1
0.464,1.34408602150538,0.289833822091887,-0.0659743433109346,0
4.056,1.99706744868035,0.404692082111437,-0.0445937690897984,0
0.52,0.423264907135875,0.390625,0.208333333333333,1
2.512,0.521016617790811,0.740234375,0.790811339198436,0
0.952,0.329411764705882,0.453125,,0
0.544,1.71358748778104,0.455034213098729,0.507281553398058,1
0.312,0.384313725490196,0.75,,1
3.52,1.75953079178886,0.330078125,0.127290495968727,0
3.632,1.6099706744868,0.5048828125,-0.0004886391399951,1
3.688,0.519061583577713,-0.337254901960784,0.110459433040078,1
3.52,0.256109481915934,0.26953125,0.157441574415744,1
3.288,1.82893450635386,0.229716520039101,0.160923076923077,0
1.664,2.227761485826,0.134897360703812,-0.0004886391399951,0
2.192,0.462745098039216,0.795275590551181,,0
3.712,0.258823529411765,0.559055118110236,,0
2.328,0.705882352941177,1.5,,1
2.08,2.11339198435973,0.46484375,0.22599560224774,0
1.872,0.605083088954057,0.58984375,0.0166177908113392,1
2.432,1.58553274682307,0.51513671875,-0.120952962736714,0
2.712,0.376344086021505,0.37109375,-1.45138888888889,1
2.256,0.365591397849462,0.525390625,-1.51388888888889,1
4.04,0.449657869012708,0.435294117647059,0.010752688172043,1
4.288,0.396871945259042,0.515625,-0.114914425427873,0
4.496,1.78592375366569,0.330078125,0.834595651111654,0
2.288,0.448680351906158,0.201171875,0.18450184501845,0
3.0,2.21407624633431,0.0146627565982405,1.0,0
1.84,1.82600195503421,0.52001953125,1.0,1
1.112,0.301960784313725,0.5078125,,1
4.64,0.351906158357771,0.223529411764706,0.0815533980582524,0
1.728,0.337254901960784,0.598425196850394,,0
0.024,0.330400782013685,0.134765625,0.498533724340176,0
0.768,0.592156862745098,0.582677165354331,,0
3.68,0.66177908113392,0.27843137254902,0.541747572815534,0
0.288,,0.0941176470588235,0.0332355816226784,1
1.712,0.486274509803922,-0.062992125984252,,0
1.792,0.592375366568915,0.44921875,1.0,1
1.776,0.259042033235582,0.765625,1.0,0
1.52,0.435294117647059,0.515625,,1
2.648,0.437927663734115,0.384765625,-1.47222222222222,1
2.232,0.552941176470588,0.53125,,1
4.488,2.29521016617791,0.53515625,-0.162492364080635,0
0.104,0.596078431372549,1.390625,,1
1.656,1.34995112414467,0.390029325513196,-0.0537568723274282,0
1.336,0.552941176470588,0.734375,,0
1.784,0.388235294117647,0.421875,,0
2.256,1.03519061583578,0.70039100684262,0.328121182506719,1
1.264,0.567937438905181,0.233333333333333,-0.135922330097087,0
2.936,1.41348973607038,0.56005859375,-0.125229077580941,0
3.192,0.576735092864125,0.213725490196078,-0.438834951456311,0
3.288,0.304985337243402,0.37109375,-1.33333333333333,1
3.752,1.65102639296188,1.50097751710655,0.316882482286831,1
0.6,0.431372549019608,0.4140625,,0
2.336,1.98826979472141,0.490234375,0.142193989738578,1
2.944,0.756862745098039,0.7421875,,1
0.488,0.462745098039216,0.390625,,0
4.232,0.500488758553275,0.318885448916409,-0.283132530120482,0
0.432,0.294232649071359,0.794921875,0.355816226783969,1
1.248,0.457478005865103,0.205078125,0.152777777777778,1
3.648,0.321603128054741,0.095703125,0.440860215053763,0
0.408,1.77126099706745,0.5498046875,0.275836794527242,0
2.552,1.50537634408602,0.5048828125,-0.0879657910812462,0
3.144,0.411764705882353,-0.062992125984252,,0
1.144,0.618768328445748,0.41015625,0.668621700879765,0
2.816,0.552941176470588,0.46875,,1
2.608,0.549019607843137,0.4921875,,1
4.792,0.537254901960784,0.640625,,1
0.344,1.96578690127077,0.3349609375,0.173711214268263,0
1.432,0.516129032258065,0.380859375,0.330073349633252,0
0.912,0.347996089931574,0.580078125,0.0,1
2.056,2.01368523949169,0.0244379276637341,-0.0004886391399951,0
2.416,0.32156862745098,0.4375,,1
3.064,0.72336265884653,0.708984375,0.0811339198435973,0
2.56,0.49266862170088,1.05859375,0.78494623655914,0
5.024,1.81133919843597,0.52001953125,0.572929391644271,1
4.496,0.365591397849462,-0.099609375,0.118279569892473,1
4.76,2.48191593352884,0.354838709677419,-0.183872938301772,0
4.864,0.713725490196078,0.65625,,1
4.632,0.618768328445748,0.439628482972136,-0.0933734939759036,0
3.136,0.453567937438905,0.583984375,0.192570869990225,1
1.64,,0.735294117647059,1.0,1
4.648,0.502443792766373,0.17578125,0.3690036900369,0
3.424,0.16078431372549,0.4453125,,0
3.512,0.650048875855327,0.42578125,0.0,1
3.784,1.72825024437928,0.264907135874878,0.335695089176643,1
0.096,0.702834799608993,0.23921568627451,0.242718446601942,0
0.744,0.556207233626588,-0.12156862745098,0.226322263222632,1
3.224,0.262952101661779,0.484375,0.0,1
2.736,1.95796676441838,0.625,0.285853896897141,0
1.664,1.99315738025415,0.4951171875,0.169069142438309,1
2.016,0.250980392156863,0.543307086614173,,0
3.328,0.297165200391007,0.39453125,0.185731857318573,1
1.224,0.713725490196078,0.546875,,1
4.384,0.317647058823529,0.8203125,,0
3.264,0.388235294117647,0.795275590551181,,0
2.288,0.418377321603128,0.379256965944272,-0.322289156626506,0
2.472,0.52156862745098,-0.0708661417322835,,0
3.392,0.388074291300098,0.494140625,0.873900293255132,0
3.416,0.341153470185728,0.174509803921569,0.230012300123001,1
1.328,0.55425219941349,0.39938080495356,-0.168674698795181,0
2.808,0.552941176470588,0.484375,,1
4.0,0.27761485826002,0.583984375,0.849462365591398,1
1.376,1.72922776148583,0.56982421875,1.0,1
4.856,0.556862745098039,0.4375,,1
2.048,0.282352941176471,0.3359375,,0
2.784,0.393939393939394,0.435294117647059,0.125122189638319,1
0.896,0.453567937438905,0.385448916408669,0.204819277108434,0
1.48,0.690196078431373,0.21875,,1
2.416,0.920821114369501,0.213725490196078,0.699029126213592,0
0.704,0.536656891495601,0.470703125,-0.19559902200489,0
0.296,0.653958944281525,0.0784313725490196,0.623300970873786,0
3.072,0.544477028347996,0.39453125,-1.40277777777778,1
4.992,0.529411764705882,0.5,,1
1.648,1.82795698924731,0.48486328125,-0.163103237629811,0
5.0,0.494623655913978,0.5546875,0.163245356793744,1
0.8,,0.113725490196078,0.235581622678397,1
2.904,0.698924731182796,0.515686274509804,0.0,1
2.704,0.268817204301075,0.174509803921569,0.0,1
4.592,0.552941176470588,0.53125,,1
4.48,0.333333333333333,0.4921875,,1
2.184,0.44672531769306,0.379256965944272,-0.301204819277108,0
3.76,2.74193548387097,-0.160312805474096,0.143184421534937,0
3.152,1.25610948191593,0.304985337243402,0.211336428047887,1
4.096,0.426197458455523,0.64453125,1.0,0
0.464,1.90127077223851,0.56005859375,0.278768629367212,0
1.088,1.5307917888563,0.345063538611926,-0.263897373243739,0
1.368,1.79276637341153,0.394916911045943,0.468615384615385,0
0.92,1.24144672531769,0.504887585532747,0.512621359223301,1
0.424,,0.670588235294118,0.0391006842619746,1
1.432,1.78592375366569,0.3251953125,0.289763010017102,0
3.696,0.464320625610948,0.30078125,0.180811808118081,0
3.608,1.82600195503421,0.53515625,0.227217200097728,0
1.288,,-0.0764705882352941,1.0,1
1.44,0.427450980392157,0.5234375,,1
0.976,1.89247311827957,0.47509765625,1.0,1
1.496,0.464320625610948,0.404024767801858,-0.213855421686747,0
4.56,0.354838709677419,0.294117647058824,0.110679611650485,0
2.84,0.52156862745098,0.4921875,,1
0.92,0.494117647058824,0.724409448818898,,0
3.552,0.247058823529412,0.515625,,1
1.48,2.03421309872923,0.5751953125,0.122648424138774,1
0.352,1.8514173998045,0.6201171875,0.267774248717322,1
0.2,0.258064516129032,0.82421875,0.418377321603128,0
4.632,0.35386119257087,0.245098039215686,0.087378640776699,0
4.512,1.52785923753666,0.459921798631476,-0.041747572815534,1
0.584,0.267839687194526,0.470703125,0.27663734115347,1
2.176,0.456500488758553,0.4296875,-0.12958435207824,0
3.696,0.490713587487781,0.454901960784314,0.309872922776149,1
1.864,0.740957966764418,0.099609375,-1.25,1
1.552,0.686217008797654,0.525490196078431,0.427174975562072,1
4.216,0.513196480938416,0.365325077399381,-0.292168674698795,0
1.752,0.325490196078431,0.4765625,,1
3.768,0.478983382209189,0.385448916408669,-0.274096385542169,0
1.76,1.99315738025415,0.509765625,0.181285120938187,1
2.568,0.711632453567937,0.519607843137255,0.117302052785924,1
1.616,0.422287390029326,0.2109375,0.0799507995079951,0
1.048,0.426197458455523,-0.18359375,0.174975562072336,1
2.928,0.360703812316716,0.609375,0.308895405669599,0
3.584,0.470588235294118,0.811023622047244,,0
2.912,0.52297165200391,0.345703125,0.778103616813294,0
0.616,2.6158357771261,0.580156402737048,0.494174757281553,1
2.72,0.376344086021505,0.923828125,0.694037145650049,0
4.216,0.413489736070381,0.484375,-0.144254278728606,0
4.488,1.74877810361681,0.455078125,0.843635475201564,1
2.464,0.52156862745098,-0.0551181102362205,,0
2.56,0.309803921568627,0.3046875,,1
2.064,0.550342130987292,0.474609375,-1.42361111111111,1
0.392,0.545454545454545,0.1796875,0.432062561094819,0
0.008,0.473118279569892,0.45046439628483,-0.349397590361446,0
5.024,0.675464320625611,0.109803921568627,0.388683886838868,1
1.512,0.500488758553275,0.5,0.232273838630807,0
0.696,2.05571847507331,0.60009765625,0.268262887857317,0
1.488,2.26099706744868,0.239980449657869,0.919863181040801,1
2.376,0.519061583577713,0.28515625,0.375366568914956,0
1.336,1.81133919843597,0.144672531769306,-0.0004886391399951,0
2.128,1.96871945259042,0.48486328125,-0.196090409285278,0
4.28,2.04594330400782,0.52978515625,0.478377718055216,1
2.048,0.43108504398827,0.12109375,0.390029325513196,0
0.944,2.42228739002933,0.229716520039101,-0.585337915234822,0
2.32,0.498039215686275,0.375,,1
3.496,0.325513196480938,0.125,0.391984359726295,0
1.2,0.282352941176471,0.3125,,1
2.128,0.517647058823529,0.826771653543307,,0
4.608,0.313782991202346,0.129411764705882,0.0537634408602151,1
2.064,1.80547409579668,0.379765395894428,0.188,0
0.504,2.03616813294233,0.47509765625,0.181529440508185,0
2.888,0.392156862745098,0.779527559055118,,0
2.304,0.534701857282502,0.419921875,0.537634408602151,0
2.32,,-0.141176470588235,0.0371456500488759,1
3.848,0.345098039215686,0.4375,,0
0.16,1.40664711632454,0.450146627565982,0.50873786407767,1
1.0,0.271749755620723,0.335294117647059,0.380254154447703,1
4.392,0.320625610948192,0.41015625,0.319444444444444,1
0.56,1.81133919843597,0.51513671875,0.235768385047642,1
2.632,1.77321603128055,0.379765395894428,0.128923076923077,0
2.808,0.619745845552297,0.490234375,0.432762836185819,0
0.184,0.611764705882353,0.4765625,,1
4.8,2.38318670576735,-0.235581622678397,0.758612264842414,1
4.192,0.529814271749756,0.580078125,1.0,1
4.64,1.04007820136852,0.609970674486804,1.0,1
4.432,0.636363636363636,0.08984375,1.0,0
4.208,0.545098039215686,0.515625,,1
0.848,0.32355816226784,-0.243137254901961,0.316715542521994,1
1.896,0.462745098039216,0.4921875,,1
0.816,0.298039215686275,0.7578125,,1
1.24,0.427450980392157,0.84251968503937,,0
3.552,0.972629521016618,0.325024437927664,0.289274370877107,1
3.176,0.574780058651026,0.669921875,0.186705767350929,0
0.04,0.363636363636364,0.294921875,0.733087330873309,1
3.592,0.298039215686275,0.622047244094488,,0
2.904,1.42717497556207,0.56005859375,-0.09529627367135,0
2.968,0.472140762463343,0.166015625,0.222632226322263,0
4.776,0.393939393939394,0.5546875,0.395894428152493,1
2.712,1.74584555229717,0.394916911045943,0.121538461538462,0
0.536,1.58357771260997,0.459921798631476,0.509223300970874,1
4.28,1.53372434017595,0.345063538611926,0.669191302223308,1
4.064,0.263929618768328,0.258823529411765,0.242424242424242,1
4.76,1.62756598240469,0.625,1.0,1
1.032,0.262745098039216,0.6953125,,0
1.04,0.343108504398827,0.529296875,0.371638141809291,0
0.392,0.282352941176471,0.464566929133858,,0
4.976,0.454901960784314,0.25,,1
2.12,0.559139784946237,0.6796875,0.647116324535679,0
3.912,0.314760508308895,-0.0215686274509804,0.27761485826002,1
3.32,0.259042033235582,0.445098039215686,0.108504398826979,1
2.056,0.470588235294118,0.421875,,1
0.16,2.04496578690127,0.4248046875,0.359149767896409,1
0.064,0.504398826979472,0.42578125,-0.0855745721271394,0
1.808,0.837732160312806,0.203921568627451,0.601941747572815,0
3.96,0.286274509803922,0.7734375,,0
4.176,0.549019607843137,0.5078125,,1
1.384,0.537254901960784,0.811023622047244,,0
4.12,1.65004887585533,0.55517578125,0.228927437087711,0
1.184,2.07233626588465,0.4501953125,0.153921329098461,1
2.536,0.383186705767351,0.14453125,0.35386119257087,0
4.48,1.9980449657869,0.260019550342131,0.13631156930126,0
2.928,1.83870967741935,0.475073313782991,-0.0776699029126214,1
3.112,0.495601173020528,0.5546875,0.183773216031281,1
4.592,0.513725490196078,0.78125,,0
1.496,0.525904203323558,0.0843137254901961,-0.137864077669903,0
3.704,2.04203323558162,0.52490234375,0.835572929391644,1
1.192,0.558162267839687,0.314241486068111,-0.129518072289157,0
0.168,0.615686274509804,0.4921875,,1
0.0,0.283479960899316,0.794921875,0.746823069403715,0
1.176,1.58846529814272,0.55517578125,1.0,1
3.752,0.484848484848485,0.379256965944272,-0.286144578313253,0
2.72,0.368627450980392,0.4609375,,1
4.56,0.391984359726295,-0.03515625,0.38514173998045,0
0.848,1.90224828934506,0.4248046875,-0.118509468540012,0
4.312,0.501960784313725,-0.15748031496063,,0
2.32,1.50439882697947,0.55517578125,0.262643537747374,0
0.016,0.699902248289345,0.223529411764706,0.421894218942189,1
4.08,2.05962854349951,0.5,0.260444661617396,1
0.392,0.703812316715543,0.62890625,0.683284457478006,0
1.56,0.443137254901961,0.5703125,,1
3.888,3.0830889540567,0.254643206256109,0.365746396286343,1
1.864,1.81622678396872,0.5751953125,1.0,1
2.032,2.04007820136852,0.52001953125,0.101148301978989,1
2.792,1.89833822091887,0.139784946236559,0.558270217444417,0
4.656,0.298039215686275,0.78125,,1
4.16,0.320625610948192,0.310546875,0.321033210332103,1
4.016,1.78690127077224,0.179863147605083,0.367384615384615,0
4.256,1.59530791788856,0.424731182795699,0.64695822135353,1
0.496,0.392156862745098,0.818897637795276,,0
4.096,2.96480938416422,0.379765395894428,-0.0597087378640777,1
1.648,0.454901960784314,0.578125,,1
0.384,0.447058823529412,0.803149606299213,,0
2.072,2.02052785923754,0.4951171875,0.0923527974590765,1
2.736,1.73313782991202,0.410068426197458,0.118153846153846,0
0.848,0.525490196078431,0.637795275590551,,0
4.864,1.71163245356794,0.209677419354839,-0.550973654066438,0
3.624,2.17008797653959,0.0043988269794721,1.0,0
3.0,0.281524926686217,0.364705882352941,0.0791788856304985,1
3.824,2.87976539589443,0.304985337243402,-0.0354306658521686,0
3.032,0.584313725490196,0.4921875,,1
4.784,0.63921568627451,0.75,,0
4.528,0.384313725490196,0.9921875,,1
1.992,,0.129411764705882,0.624633431085044,1
0.472,0.447058823529412,0.488188976377953,,0
0.904,0.0039215686274509,0.546875,,1
1.656,1.99315738025415,0.47998046875,0.168091864158319,1
3.04,1.84457478005865,0.31494140625,0.166625946738334,0
0.376,1.79472140762463,0.5751953125,0.23698998289763,1
0.752,0.409579667644184,0.6640625,0.190615835777126,0
0.176,1.0752688172043,0.495112414467253,0.276569753237234,1
3.424,2.45650048875855,-0.280547409579668,0.18299535792817,1
2.592,0.715542521994135,0.580392156862745,0.168932038834951,0
0.472,1.01466275659824,0.479960899315738,0.524757281553398,1
2.352,0.78494623655914,0.213725490196078,0.862135922330097,0
0.608,,-0.147058823529412,0.21505376344086,1
1.32,0.466666666666667,0.779527559055118,,0
1.432,1.98338220918866,0.5849609375,1.0,1
2.024,2.24828934506354,0.509765625,-0.207086133170434,0
3.184,0.433040078201369,-0.224609375,0.240469208211144,0
3.928,0.249266862170088,0.73046875,0.0,1
4.184,1.79765395894428,0.349951124144673,0.391384615384615,0
2.648,0.532746823069404,0.439453125,0.852394916911046,1
1.208,0.562072336265885,0.140625,0.189421894218942,0
2.568,1.60215053763441,0.475073313782991,0.0397067806963958,0
2.248,1.02150537634409,0.710166177908113,0.330564378206694,1
0.832,1.9169110459433,0.4248046875,-0.120952962736714,0
1.456,1.86999022482893,0.55517578125,0.22599560224774,0
3.984,2.22873900293255,0.47509765625,0.202785243097972,0
0.104,0.541544477028348,-0.131372549019608,0.410824108241082,1
0.144,0.454901960784314,0.700787401574803,,0
1.552,0.556862745098039,0.203125,,1
0.976,0.494117647058824,0.818897637795276,,0
1.096,0.709803921568627,0.4765625,,1
0.384,1.76930596285435,0.55517578125,0.274859516247251,0
4.416,1.96969696969697,0.56494140625,0.253115074517469,0
0.808,,0.113725490196078,0.225806451612903,1
1.664,0.663734115347019,0.60546875,0.728250244379277,1
1.584,1.93157380254154,0.51513671875,-0.164935858277337,0
2.776,0.0274509803921569,0.765625,,0
2.592,0.541176470588235,0.421875,,0
3.632,1.24926686217009,0.325024437927664,0.0006108735491753,0
3.296,0.541176470588235,0.4609375,,1
0.712,2.19941348973607,0.43994140625,-0.108735491753207,0
3.488,0.286412512218964,0.0333333333333333,0.214022140221402,1
1.976,0.572825024437928,0.470703125,-0.15158924205379,0
0.112,1.14467253176931,0.609970674486804,0.238455900317615,1
1.464,0.709803921568627,0.28125,,1
4.544,1.8435972629521,0.205078125,0.264109455167359,0
1.36,0.517647058823529,-0.0708661417322835,,0
0.664,0.510263929618768,0.609375,0.183773216031281,1
0.96,0.519061583577713,0.220703125,0.28290282902829,1
4.336,0.333333333333333,0.7265625,,0
0.904,2.03519061583578,0.5,0.189103347178109,1
3.56,1.9188660801564,0.5498046875,-0.132559560171045,0
2.824,1.89540566959922,0.0997067448680352,0.609821646713902,0
0.744,0.444770283479961,0.0392156862745098,0.532038834951456,0
0.592,0.310850439882698,0.245098039215686,0.842718446601942,0
1.344,0.50830889540567,0.201171875,0.183271832718327,0
4.112,0.259042033235582,0.0333333333333333,0.201722017220172,1
4.04,0.455522971652004,0.154901960784314,1.02912621359223,0
1.592,0.701960784313725,0.421875,,0
4.368,0.252199413489736,0.44921875,0.412054120541205,1
1.96,1.33822091886608,1.50097751710655,0.404593207915954,1
2.08,0.475073313782991,0.325077399380805,-0.340361445783133,0
0.992,2.01466275659824,0.490234375,0.155631566088444,1
1.936,0.951124144672532,0.374877810361681,0.0097739767868051,0
1.904,0.596078431372549,0.5,,1
1.88,0.466666666666667,0.149606299212598,,0
1.912,0.376470588235294,0.734375,,0
2.76,0.354838709677419,0.96875,0.596285434995112,0
1.776,0.450980392156863,0.4921875,,1
3.456,2.40078201368524,-0.215542521994135,0.180796481798192,1
1.712,2.23069403714565,0.109481915933529,-0.0004886391399951,0
0.536,0.27843137254902,0.2890625,,1
3.336,0.390029325513196,0.30030959752322,-0.259036144578313,0
2.736,0.552297165200391,0.435546875,0.464320625610948,0
0.728,2.20527859237537,0.0997067448680352,0.445394576105546,0
2.0,0.487781036168133,0.10546875,0.183271832718327,0
0.856,0.66080156402737,0.44921875,0.682306940371456,0
0.864,2.53372434017595,0.490224828934506,-0.315210751374465,0
0.08,0.63921568627451,1.5,,1
3.008,0.444770283479961,0.0235294117647059,0.330873308733087,1
3.696,0.549019607843137,0.625,,1
2.872,1.93352883675464,0.509765625,0.770095284632299,1
4.416,1.88465298142718,0.134897360703812,0.567798680674322,0
3.304,2.27761485826002,0.424731182795699,-0.0810679611650485,1
3.464,1.39491691104594,0.39980449657869,0.0293219303604154,0
2.624,0.549019607843137,0.4921875,,1
3.312,0.411764705882353,-0.15748031496063,,0
0.616,0.623529411764706,0.4921875,,1
2.896,2.22678396871945,0.234604105571848,-0.84192439862543,0
4.88,2.05962854349951,0.6201171875,0.260444661617396,1
4.424,0.377321603128055,0.685546875,1.0,1
4.912,1.86021505376344,0.134897360703812,0.134620083068654,0
1.144,0.3841642228739,0.314453125,0.207872078720787,1
1.056,0.550342130987292,0.58984375,0.566959921798632,0
3.92,2.11827956989247,0.239980449657869,0.27262313860252,0
1.864,1.63538611925709,1.1505376344086,0.285365257757146,1
1.872,0.309803921568627,0.3125,,1
2.016,2.04007820136852,0.52490234375,0.10798924993892,1
0.128,0.805474095796676,0.254901960784314,0.316504854368932,0
3.36,1.95307917888563,0.0997067448680352,1.0,0
0.08,2.14271749755621,0.44482421875,0.409479599315905,1
0.04,0.623529411764706,0.65625,,1
0.04,0.393939393939394,0.66015625,1.0,1
4.16,1.75464320625611,0.47998046875,0.318592719276814,0
1.184,0.544477028347996,0.374613003095975,-0.123493975903614,0
4.008,1.78299120234604,0.169599217986315,0.366153846153846,0
2.264,0.482352941176471,-0.220472440944882,,0
4.84,1.01368523949169,0.234604105571848,0.952846322990472,1
0.0,0.961876832844575,0.209803921568627,0.0349514563106796,0
0.92,1.82991202346041,0.56494140625,0.248228683117518,0
4.696,1.73900293255132,0.274682306940371,0.243384615384615,0
4.8,0.691104594330401,-0.217647058823529,0.12316715542522,1
1.528,2.02150537634409,0.56005859375,0.141216711458588,1
4.088,0.47702834799609,0.41015625,0.0664711632453568,0
2.656,1.41153470185728,0.339687194525904,0.0445937690897984,0
4.152,0.482352941176471,-0.078740157480315,,0
0.176,1.67057673509286,0.354838709677419,-0.0390959071472205,0
3.744,0.41544477028348,0.42578125,-1.31944444444444,1
2.256,1.70087976539589,0.129521016617791,0.0004886391399951,0
2.464,0.50733137829912,0.580078125,0.32355816226784,0
3.368,0.472140762463343,0.23046875,0.185731857318573,0
0.36,1.08406647116325,0.450146627565982,0.547087378640777,1
5.024,0.287390029325513,0.319607843137255,0.224828934506354,1
0.296,0.43921568627451,0.811023622047244,,0
1.888,,-0.156862745098039,0.806451612903226,1
4.928,0.698039215686274,1.5,,1
1.848,0.503421309872923,0.1796875,0.407624633431085,0
2.92,0.168627450980392,0.75,,0
0.92,0.575757575757576,0.4296875,0.210166177908113,1
4.24,2.05767350928641,0.125,0.512826777424872,1
3.776,2.3841642228739,0.339687194525904,-0.034208918753818,0
0.88,0.294117647058824,0.765625,,1
0.536,,-0.111764705882353,0.140762463343109,1
3.496,0.63921568627451,0.3359375,,1
2.952,1.79081133919844,0.319648093841642,0.160273637918397,1
4.328,0.458455522971652,0.379256965944272,-0.192771084337349,0
3.296,0.168627450980392,0.4375,,0
2.52,0.52297165200391,0.10546875,0.195571955719557,0
2.984,1.75855327468231,0.495112414467253,-0.0645631067961165,1
4.008,0.502443792766373,0.0745098039215686,1.0252427184466,0
0.968,1.97458455522972,-0.250733137829912,0.282433422917176,1
0.68,2.01270772238514,0.0298142717497556,0.503542633764965,0
1.904,0.396078431372549,1.0390625,,1
3.464,2.01466275659824,0.47021484375,1.0,1
4.04,2.07233626588465,0.47998046875,0.233813828487662,0
0.8,1.74291300097752,0.209677419354839,-0.789232531500573,0
1.904,0.490196078431373,0.4921875,,1
3.624,2.50537634408602,0.229716520039101,-0.0607101947308133,0
3.656,0.393939393939394,0.525390625,-0.210268948655257,0
4.224,0.66177908113392,-0.217647058823529,0.157380254154448,1
0.408,1.74877810361681,0.55517578125,0.197410212558026,1
4.336,0.545098039215686,0.5859375,,1
3.192,1.87976539589443,0.134897360703812,0.217444417297826,1
3.544,0.525490196078431,0.4375,,0
3.944,0.329411764705882,0.328125,,1
0.448,1.58553274682307,0.450146627565982,0.298802834107012,1
4.064,0.294117647058824,0.3125,,1
2.008,1.89442815249267,0.6201171875,0.230881993647691,0
3.264,0.26197458455523,0.284313725490196,0.0850439882697947,1
4.048,2.0039100684262,0.5048828125,0.181773760078182,1
2.016,0.545098039215686,0.4765625,,1
1.128,0.597262952101662,0.650390625,0.274682306940371,0
4.72,0.473118279569892,0.425490196078431,0.253176930596285,1
3.304,0.329411764705882,0.59375,,1
0.432,2.82306940371457,0.269794721407625,-0.778923253150057,0
1.232,2.05571847507331,0.5400390625,0.135108722208649,1
1.352,1.83382209188661,0.8447265625,0.397752259956022,0
2.592,0.319648093841642,0.129411764705882,0.105571847507331,1
3.792,1.73020527859238,-0.210654936461388,0.341314439286587,1
3.896,2.32942326490714,-0.210654936461388,0.344490593696555,1
0.352,1.09188660801564,0.455034213098729,0.548058252427184,1
2.024,0.421309872922776,-0.117647058823529,0.190651906519065,1
4.072,0.545098039215686,0.5078125,,1
4.544,0.341176470588235,0.4921875,,1
2.648,0.452590420332356,0.273993808049536,-0.210843373493976,0
4.832,0.545098039215686,0.5625,,1
3.032,1.71163245356794,0.434995112414467,-0.0616504854368932,1
3.208,0.537254901960784,0.5859375,,1
0.672,0.537254901960784,0.700787401574803,,0
0.52,2.13489736070381,-0.175464320625611,0.287808453457122,1
2.912,2.2316715542522,0.379765395894428,0.134769230769231,0
1.856,0.286274509803922,0.566929133858268,,0
3.216,0.537254901960784,0.5703125,,1
4.072,2.02834799608993,0.59521484375,0.633276325433667,1
3.824,0.627450980392157,0.484375,,1
3.768,0.605083088954057,0.15625,0.55327468230694,0
1.832,0.340175953079179,0.3,0.416422287390029,1
1.056,0.264907135874878,0.229411764705882,0.391984359726295,1
2.032,1.89051808406647,0.249755620723363,-0.207331042382589,0
1.848,0.356862745098039,0.4296875,,0
1.784,0.458823529411765,0.724409448818898,,0
1.2,2.36265884652981,0.59521484375,0.230637674077694,0
0.224,1.91397849462366,0.195014662756598,0.33398485218666,1
1.376,0.337254901960784,0.7265625,,1
0.208,0.375366568914956,-0.131372549019608,0.38130381303813,1
4.528,0.541176470588235,0.0859375,,1
3.096,0.424242424242424,0.6953125,0.698924731182796,0
3.68,1.2336265884653,0.309872922776149,-0.0146609651802077,0
1.872,0.318670576735093,-0.201960784313725,0.41544477028348,1
4.44,0.384313725490196,0.203125,,1
2.064,1.16226783968719,0.159824046920821,0.365257757146347,1
2.96,0.535679374389052,0.30078125,0.175891758917589,1
3.168,0.529411764705882,0.834645669291339,,0
3.432,1.62463343108504,0.35009765625,0.124358661128756,0
3.528,2.31573802541544,0.410068426197458,-0.0407766990291262,1
3.688,0.60019550342131,0.55078125,0.497556207233627,1
1.144,0.32156862745098,0.5625,,1
4.032,1.90322580645161,0.0645161290322581,0.351087222086489,1
4.144,0.326490713587488,0.125,1.0,0
2.352,0.496578690127077,0.5,-0.337349397590361,0
2.232,0.470588235294118,0.779527559055118,,0
1.696,0.454901960784314,0.484375,,1
3.552,1.75659824046921,0.394916911045943,0.238769230769231,0
0.24,0.572549019607843,0.4921875,,1
1.224,0.361681329423265,0.349609375,0.178351783517835,1
4.552,1.71456500488759,0.44482421875,0.98802834107012,1
0.928,2.18572825024438,0.309872922776149,0.398153846153846,0
4.696,1.41642228739003,0.53515625,0.854385536281456,0
0.744,0.514173998044966,0.111328125,0.499511241446725,0
1.68,0.568627450980392,0.4453125,,0
4.664,0.30791788856305,0.188235294117647,0.437884378843788,1
2.336,1.73704789833822,0.229716520039101,-0.815578465063001,0
3.064,0.498039215686275,0.6953125,,1
2.456,0.732160312805474,0.1953125,-1.51388888888889,1
0.776,0.429130009775171,0.580078125,0.0,1
2.584,0.392156862745098,0.9609375,,1
3.624,0.466275659824047,0.798828125,0.761485826001955,0
1.064,0.391984359726295,0.169921875,0.182041820418204,0
1.992,0.305882352941176,0.328125,,0
1.6,2.19941348973607,0.43505859375,0.237234302467628,0
4.744,2.03910068426197,-0.175464320625611,0.78304422184217,1
4.232,0.635294117647059,0.68503937007874,,0
0.168,0.728250244379277,0.26953125,0.695014662756598,0
3.16,0.333333333333333,0.4375,,1
0.192,0.513725490196078,0.0708661417322835,,0
1.768,0.740957966764418,0.3046875,0.109471094710947,1
1.152,0.745098039215686,0.4765625,,1
2.128,1.67839687194526,0.239980449657869,-0.434135166093929,0
0.152,2.18181818181818,-0.0606060606060606,0.29196188614708,1
1.776,0.863147605083089,0.249019607843137,0.537864077669903,0
3.6,1.26099706744868,0.329912023460411,0.0128283445326817,0
3.944,0.514173998044966,0.3359375,0.217712177121771,1
1.776,0.521016617790811,0.169921875,0.414467253176931,0
1.152,0.298039215686275,0.3359375,,1
1.216,0.259042033235582,0.209803921568627,0.378299120234604,1
3.592,0.478983382209189,1.025390625,0.0,1
3.632,0.525490196078431,0.4140625,,0
0.72,0.266666666666667,0.7578125,,0
1.808,0.368627450980392,0.421875,,0
0.576,,-0.0607843137254902,0.18475073313783,1
4.928,0.533333333333333,0.484375,,1
1.928,0.274682306940371,0.830078125,1.0,0
4.976,0.533333333333333,-0.102362204724409,,0
3.584,2.01955034213099,0.5048828125,0.94795993159052,1
2.048,0.482893450635386,0.424148606811146,-0.355421686746988,0
1.456,0.424242424242424,0.58984375,0.0,1
0.248,0.631372549019608,0.4765625,,1
0.8,0.356793743890518,0.364705882352941,0.274682306940371,1
2.032,0.549019607843137,0.4453125,,1
1.272,0.388235294117647,1.0703125,,1
0.736,0.726295210166178,0.310546875,0.402214022140221,1
0.192,0.258064516129032,0.865234375,0.427174975562072,0
2.408,0.701960784313725,0.519685039370079,,0
3.216,0.4,0.984375,,1
3.896,0.541176470588235,0.5390625,,1
4.624,1.97067448680352,0.509765625,-0.185705558949297,0
0.496,0.686217008797654,0.705078125,0.388074291300098,0
1.344,0.549019607843137,0.703125,,0
0.0,2.10263929618768,0.59521484375,0.322501832396775,0
1.84,0.596285434995112,0.4453125,0.517106549364614,0
2.088,0.324535679374389,0.400390625,1.0,1
0.808,0.366568914956012,0.740234375,0.0909090909090909,0
0.136,0.286274509803922,0.637795275590551,,0
4.024,0.402737047898338,0.370588235294118,0.0097751710654936,1
0.744,1.86999022482893,0.28515625,0.445150256535549,0
1.6,0.47843137254902,0.94488188976378,,0
3.288,0.644183773216031,0.866666666666667,-0.34368932038835,0
0.488,0.372434017595308,0.5546875,-0.220048899755501,0
4.976,0.696969696969697,-0.0019607843137254,0.41820418204182,1
4.776,0.670588235294118,0.5546875,,1
4.784,0.501960784313725,0.795275590551181,,0
3.56,1.71945259042033,0.56494140625,0.222819447837772,0
2.136,1.66764418377322,0.229716520039101,-0.451317296678121,0
1.824,0.737047898338221,0.5546875,0.0009775171065493,1
1.176,2.33724340175953,0.60009765625,0.232347911067677,0
4.592,1.07233626588465,0.349951124144673,1.0,1
4.632,0.580392156862745,0.46875,,1
3.936,1.7663734115347,0.53515625,0.226728560957733,0
1.872,0.593352883675464,0.494140625,0.543499511241447,0
0.016,2.21309872922776,0.46484375,0.190813584168092,0
0.968,0.511241446725318,0.201171875,0.280442804428044,1
0.16,2.17106549364614,0.0395894428152493,1.0,0
2.048,2.20527859237537,-0.105571847507331,0.328854141216711,1
4.472,1.56989247311828,0.455034213098729,-0.0378640776699029,1
4.208,0.448680351906158,0.205078125,0.203323558162268,0
4.392,1.66959921798631,0.450146627565982,-0.0330097087378641,1
1.808,0.301960784313725,0.52755905511811,,0
1.072,0.317647058823529,0.4375,,0
1.552,0.61485826001955,0.0235294117647059,-0.0427184466019417,0
3.064,2.1485826001955,0.18475073313783,0.246518446127535,1
3.96,0.394916911045943,0.564453125,0.205278592375367,0
2.616,0.550342130987292,0.42578125,0.360703812316716,0
3.728,1.7663734115347,0.55517578125,-0.182651191203421,0
4.392,0.535679374389052,0.064453125,0.148831488314883,0
2.496,1.79765395894428,0.264907135874878,0.119692307692308,0
4.912,2.08895405669599,-0.150537634408602,0.674322013193257,1
2.584,1.57086999022483,0.390029325513196,0.0415394013439218,0
1.488,2.41446725317693,-0.210654936461388,0.172245296848278,1
